254743 66712 69109
256672 67119 70422
259111 68018 71773
261975 68636 73059
264867 69195 74191
267646 69735 75141
270082 70353 75950
272216 70599 76513
273738 70693 76864
274833 70951 76993
275447 70803 76986
275692 70917 76855
275743 70964 76622
275597 70797 76355
275288 70690 76103
275015 70882 76038
274738 70820 75818
274413 70895 75669
274083 71102 75438
273768 71054 75268
273482 71095 75176
273073 71218 75185
272808 71548 75341
272610 71915 75691
272640 72844 76354
272747 73773 77417
273153 74755 78158
273285 75659 79270
273761 76971 80214
273827 77112 80191
273427 76966 79899
272980 76561 79531
272419 76101 79219
271909 75725 78849
271315 75179 78339
270738 74764 77873
270099 74391 77409
269525 74019 77015
268928 73480 76531
268341 73271 76226
267816 73117 75894
267307 72890 75757
266911 72998 75568
266475 72913 75458
266072 72886 75304
265618 72766 75179
265272 72830 75041
264845 72719 74887
264524 72813 74810
264230 72982 74720
263943 72791 74753
263799 73026 74804
263728 73269 74790
263529 73122 74664
263309 73225 74659
263191 73306 74689
262933 73208 74716
262764 73467 74675
262445 73406 74578
262111 73255 74339
261624 73092 73981
261104 72826 73553
260436 72356 73127
259815 72084 72744
259210 71780 72356
258577 71536 72054
258067 71370 71686
257452 71222 71348
256926 70924 71078
256404 70798 70810
255966 70630 70623
255538 70587 70494
255219 70499 70346
254824 70503 70133
254444 70315 69950
254110 70216 69674
253719 70006 69487
253308 69881 69293
252974 69849 69380
252877 70059 70005
253099 70496 71089
254056 71155 72321
255451 71792 73569
257418 72566 74822
259870 73154 76176
262797 74154 77585
265929 74829 78892
269005 75519 80081
271835 76107 80914
274067 76589 81625
275798 76843 82061
276944 76970 82254
277703 77034 82308
278031 76849 82251
278067 76683 81994
277793 76513 81666
277306 76314 81324
276801 76087 80910
276113 75911 80544
275477 75606 80185
274812 75594 79911
274150 75474 79620
273469 75485 79419
272949 75671 79388
272375 75836 79555
271965 76058 79756
271530 76298 79842
271009 76776 80056
270545 77356 80375
270158 77451 80446
269529 77239 80038
268651 76886 79784
267990 76866 79735
267543 77043 79888
267326 77205 79937
267077 77298 80023
266878 77378 80071
266678 77378 80123
266535 77352 80031
266154 77271 79843
265771 77103 79491
265286 76702 78959
264584 76299 78470
263941 75796 77928
263258 75516 77484
262652 75372 77002
262070 75270 76734
261633 75060 76453
261050 74948 76155
260616 74765 75823
260034 74458 75379
259466 74263 74982
258935 74072 74540
258416 73789 74156
257867 73547 73754
257321 73441 73461
256846 73122 73106
256291 72945 72776
255859 72856 72434
255346 72579 72143
254880 72360 71697
254318 71964 71242
253816 71690 70806
253213 71321 70289
252695 70951 69834
252191 70620 69370
251717 70437 69055
251278 70111 68628
250850 69981 68339
250463 69808 68057
250068 69835 67828
249836 69659 67556
249461 69492 67259
249132 69435 67068
248802 69342 66840
248527 69242 66603
248140 69130 66395
247909 69095 66412
247691 69101 66657
247790 69528 67547
248408 70225 68813
249531 70864 70244
251273 71572 71562
253485 72377 72985
256254 73125 74365
259288 73860 75693
262452 74506 76901
265374 75061 77842
268047 75719 78697
270285 76004 79207
271985 75901 79490
273123 75899 79508
273869 76029 79492
274265 75868 79402
274432 75980 79253
274474 76025 79072
274261 75639 78853
274038 75716 78632
273643 75581 78297
273250 75410 77933
272725 75300 77618
272184 75129 77272
271628 74735 76794
270928 74582 76390
270315 74438 76011
269684 74303 75720
269138 74195 75464
268628 74214 75237
268190 73997 75113
267840 73987 75014
267589 74004 75012
267436 74001 75029
267393 74082 75152
267476 74134 75220
267605 74176 75387
267785 74230 75473
267933 74400 75596
268155 74456 75646
268235 74512 75670
268351 74587 75615
268337 74419 75499
268249 74364 75455
268198 74423 75369
268109 74422 75204
267908 74338 75008
267650 74284 74836
267381 74036 74580
267039 73928 74400
266771 73832 74087
266349 73734 73860
266019 73615 73608
265566 73502 73335
265164 73313 73124
264748 73180 72929
264394 73243 72683
264006 73158 72473
263627 72945 72348
263321 72924 72103
262965 72976 72019
262674 72696 71740
262308 72694 71631
261998 72687 71467
261655 72542 71369
261393 72613 71322
261075 72552 71183
260699 72247 70878
260124 71924 70350
259503 71655 69906
258795 71239 69393
258152 71074 68950
257501 70768 68553
256930 70511 68405
256531 70770 68572
256266 71102 69286
256561 71525 70326
257244 72119 71517
258542 72720 72647
260222 73136 73807
262468 73815 75060
264930 74421 76181
267502 75117 77306
269978 75697 78188
272155 76063 78964
273948 76333 79453
275354 76655 79836
276389 76851 79977
277033 76916 80043
277473 76993 80030
277619 76806 79905
277536 76692 79716
277308 76637 79446
277007 76546 79184
276486 76270 78713
275890 76128 78288
275190 75643 77764
274382 75270 77209
273556 75017 76605
272714 74798 76124
271941 74584 75650
271183 74317 75351
270588 74267 75153
269981 74240 74946
269538 74146 74885
269175 74255 74874
268943 74361 74981
268823 74370 75099
268846 74616 75277
268976 74646 75377
269082 74717 75574
269350 74869 75670
269546 75024 75788
269740 74920 75825
269883 74971 75923
270055 75074 75992
270114 75162 75947
270189 75252 75917
270149 75326 75802
270023 75114 75734
269930 75089 75611
269616 75123 75542
269435 75118 75374
269149 75181 75364
268919 75260 75198
268528 75225 75076
268251 75083 74893
267766 74850 74548
267371 74645 74249
266888 74465 73870
266422 74439 73667
265984 74198 73472
265637 74177 73291
265235 74050 73074
264851 74008 72917
264535 74005 72726
264118 73796 72462
263711 73738 72215
263248 73438 71960
262904 73481 71816
262521 73345 71633
262177 73342 71470
261840 73356 71354
261520 73327 71281
261250 73268 71168
260952 73341 71385
260925 73584 71961
261306 73929 72947
262336 74509 74071
263886 75059 75284
266046 75752 76595
268510 76484 77938
271289 77435 79339
274043 78155 80504
276614 78721 81529
278867 79299 82319
280648 79672 82925
281989 79871 83224
282791 80031 83410
283297 80062 83335
283291 79857 83150
283139 79663 82833
282753 79408 82501
282301 79211 82200
281763 79087 81948
281262 79045 81715
280711 78839 81422
280176 78897 81170
279640 78636 80795
278948 78311 80357
278272 78260 79946
277515 78044 79551
276826 77890 79262
276150 77852 79041
275678 77657 78883
275239 77374 78749
274888 77583 78671
274665 77551 78616
274558 77463 78735
274528 77476 78640
274581 77537 78717
274660 77481 78762
274712 77466 78837
274907 77541 78812
274918 77435 78814
274932 77464 78775
274915 77389 78689
274810 77238 78592
274660 77177 78411
274460 77137 78221
274113 76974 77956
273788 76856 77722
273422 76642 77386
273005 76383 77155
272588 76339 76943
272211 76382 76726
271866 76270 76602
271468 76293 76509
271267 76250 76416
270958 76166 76236
270698 76255 76133
270375 76272 75963
270018 75959 75708
269605 75610 75432
269128 75584 75138
268656 75316 74812
268185 75171 74570
267702 74993 74278
267089 74683 73879
266520 74308 73537
265843 74005 73132
265196 73719 72799
264603 73557 72688
264135 73714 73023
263948 74044 73812
264270 74675 75065
265282 75373 76307
266840 76057 77673
268957 76787 79061
271540 77567 80461
274407 78196 81807
277170 78814 83007
279878 79377 84136
282155 79904 85022
284068 80194 85736
285438 80485 86199
286399 80800 86461
286941 80734 86555
287211 80875 86594
287153 80768 86414
286892 80572 86239
286555 80567 86002
286053 80299 85727
285610 80145 85445
285078 79970 85213
284690 79862 84939
284184 79635 84660
283762 79605 84329
283280 79332 83949
282658 79100 83590
282057 79042 83269
281454 78874 82992
280886 78640 82731
280385 78588 82549
279980 78586 82355
279547 78463 82223
279329 78515 82229
279032 78317 82107
278912 78277 82054
278831 78289 81997
278781 78313 82034
278786 78249 82013
278860 78292 82103
278983 78288 82113
278995 78285 82128
279052 78409 82105
279029 78352 82055
278889 78270 81930
278695 78117 81801
278494 78031 81616
278225 78000 81478
277905 78014 81326
277562 77835 81056
277079 77650 80826
276706 77550 80577
276206 77268 80301
275693 77239 79923
275154 77038 79678
274705 76862 79378
274179 76661 79130
273739 76516 79000
273349 76529 78819
273002 76576 78703
272606 76523 78436
272279 76460 78261
271855 76250 77990
271407 76046 77763
271000 75940 77449
270480 75945 77310
270173 76021 77217
269841 76039 77305
269711 76368 77646
269856 76621 78417
270627 77274 79597
271976 78248 81040
274011 79387 82772
276645 80281 84390
279414 80973 85809
282181 81618 87101
284790 82171 88297
287248 82825 89300
289264 83324 90160
290967 83755 90832
292157 84118 91309
293011 84297 91732
293649 84497 91980
294011 84826 92213
294376 84908 92278
294514 84849 92253
294554 84729 92059
294470 84425 91956
294448 84388 91799
294461 84412 91895
294529 84540 92026
294830 84634 92275
294886 84997 92455
294902 85129 92431
294718 85086 92342
294426 85110 92123
293882 85159 91902
293391 84789 91462
292725 84622 91135
292107 84367 90696
291416 84024 90381
290914 83845 90020
290395 83637 89710
289911 83284 89433
289425 82972 89220
289067 82941 89115
288861 82849 88978
288698 82774 88917
288609 82940 88921
288625 83337 89130
288800 83564 89370
289037 83968 89639
289225 84188 89772
289344 84537 89949
289407 84917 90062
289477 85129 90253
289602 85433 90397
289590 85552 90353
289586 85749 90385
289548 85776 90239
289283 85743 89973
288962 85481 89525
288538 85005 88892
287847 84320 87919
286987 83289 86725
285958 82220 85382
284735 81249 83913
283532 80169 82500
282421 79104 81667
281636 78631 80999
280873 78635 80668
280361 78562 80538
279909 78557 80226
279433 78260 79758
278870 77417 79060
278156 76684 78153
277292 75404 77030
276352 74501 76382
275641 73957 76263
275481 73920 76833
275986 74158 77673
277043 74658 78856
278723 75462 80255
280874 76295 81525
283225 76962 82862
285544 77800 84026
287768 78370 85109
289688 78986 85933
291270 79343 86593
292408 79643 87062
293219 79840 87322
293713 79937 87464
294044 79830 87438
294218 79612 87277
294109 79321 87073
293956 79089 86974
293877 78879 87004
293790 78930 87114
293786 78764 87239
293623 78793 87477
293753 78848 87664
293524 78874 87890
293388 78949 88034
292998 78996 87828
292561 79018 87810
292107 78874 87712
291660 79027 87651
291185 79025 87553
290697 78996 87644
290373 79125 87664
289917 79028 87683
289594 79068 87734
289390 79345 88007
289321 79597 88282
289333 79814 88718
289500 80457 89331
289788 80963 89953
290026 81248 90242
290113 81291 90252
290068 81218 90201
289804 80934 89930
289420 80579 89510
288831 80134 89020
288250 79738 88622
287788 79593 88255
287254 79277 87935
286837 79236 87587
286469 79159 87355
286257 79170 87191
286063 79230 87063
286006 79215 86876
285811 79169 86639
285584 79138 86545
285412 79127 86367
285199 79016 86230
284913 78825 86036
284561 78808 85885
284276 78666 85654
283836 78523 85504
283528 78502 85381
283108 78395 85257
282740 78574 85368
282538 78784 85449
282323 78859 85420
282032 78907 85180
281677 78760 85022
281273 78553 84682
280756 78487 84446
280379 78360 84203
279944 78266 83958
279495 78101 83661
278991 77980 83379
278568 77720 83050
278009 77407 82640
277481 77320 82316
276923 76959 81877
276375 76804 81630
275920 76739 81567
275815 76736 81907
276166 76993 82480
277113 77540 83377
278741 78092 84319
280676 78596 85435
283072 79348 86708
285557 79917 87906
288030 80536 88963
290154 80969 89785
291777 81305 90380
293070 81459 90677
293771 81551 90861
294188 81264 90624
294178 80843 90365
293849 80636 89951
293525 80156 89574
293062 79947 89317
292621 79950 89124
292443 79803 88994
292063 79667 88849
291933 79795 88743
291664 79781 88604
291433 79706 88385
290955 79601 87837
290269 79143 87298
289466 78892 86724
288551 78512 86176
287676 78127 85618
286616 77797 85092
285741 77578 84609
284841 77098 84188
284076 76933 83839
283393 76767 83452
282803 76548 83231
282286 76433 83057
281892 76349 82909
281574 75982 82668
281111 75850 82462
280726 75870 82232
280296 75698 81986
279923 75480 81633
279490 75301 81409
279131 75168 81097
278672 74919 80689
278205 74775 80277
277683 74556 79754
277119 74248 79382
276652 74051 79020
276200 74023 78943
275899 73983 78835
275555 74141 78906
275379 74523 78998
275114 74685 79012
274883 74716 79070
274660 74908 79067
274433 74882 78955
274127 74875 78752
273803 74849 78487
273424 74597 78137
272995 74587 78029
272710 74626 77857
272385 74599 77788
272119 74736 77610
271817 74646 77370
271481 74372 77000
271051 74143 76697
270719 73987 76405
270278 73718 76113
269900 73587 75873
269485 73461 75506
268978 73199 75208
268565 73001 74914
268176 73044 74721
267819 72832 74460
267446 72696 74248
267208 72602 73971
266845 72398 73738
266543 72412 73458
266184 72272 73264
265917 72110 73081
265696 72217 72952
265518 72298 72973
265302 72415 72780
265002 72372 72772
264804 72440 72671
264478 72331 72530
264129 72172 72312
263583 71973 71878
262911 71444 71403
262153 70969 71123
261659 70641 71249
261513 70471 71575
261922 70531 72146
262929 70813 72711
264521 71275 73460
266657 71547 74132
268914 71809 74751
271233 72018 75122
273213 72098 75457
275001 72298 75556
276341 72269 75474
277328 72027 75268
278022 71822 74911
278475 71732 74636
278799 71427 74265
279015 71367 74098
279252 71444 73930
279289 71142 73785
279381 71054 73547
279341 70823 73402
279282 70672 73270
279180 70853 73342
279170 71103 73474
278998 71116 73661
278900 71483 73947
278604 71757 74187
278295 71973 74350
277907 72180 74365
277373 72189 74201
276727 71900 73931
276131 71904 73719
275576 71771 73430
275081 71610 73365
274842 71893 73348
274679 71923 73385
274629 71911 73402
274536 71925 73237
274504 71833 73166
274433 71610 72965
274278 71617 72865
274104 71536 72625
273784 71189 72470
273577 70994 72303
273251 70917 72226
272946 70775 72167
272623 70791 72230
272340 70777 72204
271873 70507 71987
271410 70448 71743
270861 70203 71485
270418 70069 71370
270000 69997 71153
269568 69895 71018
269174 69696 70760
268689 69494 70547
268317 69353 70174
267761 69199 69982
267364 69179 69879
267016 69128 69877
266739 69105 69987
266505 69127 69974
266296 69335 70059
265917 69272 69871
265499 69243 69819
265231 69304 69751
264880 69276 69785
264583 69178 69745
264154 69149 69573
263545 69078 69158
263086 68871 68849
262648 68596 68636
262252 68517 68428
261914 68366 68207
261541 68157 67912
261133 68048 67706
260773 67835 67417
260342 67846 67211
260007 67710 66960
259642 67464 66751
259366 67487 66485
258968 67331 66285
258776 67273 66134
258579 67311 66049
258693 67322 66198
259192 67260 66424
260261 67582 66829
261909 67923 67394
264025 68373 68031
266485 68704 68607
269051 68941 69151
271624 69234 69565
273926 69425 70042
275924 69828 70318
277492 70002 70601
278804 70197 70771
279719 70191 70857
280396 70342 70923
280830 70437 70946
281106 70666 71096
281333 70743 71137
281539 70990 71277
281718 71052 71436
281860 71442 71796
282188 71736 72162
282439 72317 72603
282737 73214 73049
282897 73717 73414
283052 74173 73782
283085 74522 74032
283068 75003 74364
282967 75594 74695
282951 76171 75082
282971 76705 75509
283056 77458 75984
283208 78143 76395
283406 78732 76858
283677 79385 77318
283914 79850 77509
284096 79954 77559
284158 79943 77516
284213 79919 77455
284275 79882 77472
284288 79998 77554
284395 80127 77564
284435 80104 77596
284407 80114 77505
284294 80122 77355
284216 79800 77129
283830 79543 76840
283501 79373 76554
283161 79077 76227
282781 78964 76047
282483 78888 75940
282246 78781 75863
281994 78753 75645
281663 78740 75427
281418 78553 75182
281057 78375 74971
280714 78082 74587
280336 77750 74300
279996 77632 73960
279609 77441 73670
279327 77262 73433
278992 77049 73153
278732 77020 72970
278467 76738 72691
278229 76780 72515
277949 76629 72209
277673 76409 71931
277329 76156 71586
277015 76059 71479
276935 76182 71524
276769 76309 71438
276670 76404 71464
276584 76477 71516
276576 76494 71615
276681 76630 71784
277081 76865 72086
277814 77027 72364
278920 77211 72653
280334 77262 72990
282046 77316 73492
283986 77534 73938
285940 77658 74331
287695 77749 74722
289254 78055 75013
290581 78227 75298
291460 78059 75402
292167 78174 75353
292442 77859 75107
292500 77830 74850
292393 77256 74520
292118 77046 74272
291776 76676 73949
291467 76461 73707
291141 76457 73496
290859 76290 73320
290636 76279 73173
290300 76345 72992
289997 75889 72880
289704 75706 72762
289119 75779 72686
288570 75593 72448
287930 75558 72393
287430 75419 72233
286839 75293 72168
286361 75231 72131
285823 75236 72054
285487 75165 71908
285025 74851 71723
284704 74827 71578
284402 74574 71428
284169 74583 71360
284052 74534 71258
283932 74450 71152
283817 74429 71068
283720 74446 71104
283728 74314 71006
283504 74280 70981
283383 74307 70847
283075 74139 70638
282755 73936 70445
282359 73834 70214
281951 73570 70050
281543 73355 69840
281164 73408 69737
280781 73324 69617
280432 73388 69632
280148 73418 69580
279810 73442 69567
279527 73385 69511
279245 73498 69497
278911 73567 69375
278475 73300 69258
278208 73355 69111
277788 73323 68962
277436 73229 68840
277118 73262 68679
276746 73266 68603
276434 73142 68518
276115 73248 68458
275864 73266 68337
275596 73166 68337
275400 73378 68346
275167 73754 68482
275326 73776 68645
275677 73988 68878
276557 74214 69309
277795 74276 69568
279308 74414 69969
281051 74682 70322
282930 74904 70727
284740 75019 71037
286303 75061 71374
287706 75016 71577
288647 74998 71687
289261 75240 71602
289551 74402 71412
289536 74085 71190
289278 73731 70899
288967 73341 70731
288576 73217 70559
288196 73203 70450
287821 73123 70331
287518 73207 70290
287188 73236 70165
286821 73108 70051
286545 73238 69877
286055 73092 69620
285528 72925 69307
284885 72730 69048
284249 72501 68751
283487 72156 68347
282817 71977 68021
282175 71830 67687
281529 71641 67475
281127 71526 67365
280742 71543 67402
280547 71552 67363
280313 71557 67419
280251 71673 67398
280117 71603 67386
280048 71483 67313
279989 71380 67139
279879 71321 67084
279771 71125 66898
279652 71184 66846
279540 71242 66781
279397 71116 66806
279344 71266 66792
279144 71300 66830
279035 71307 66838
278777 71411 66779
278529 71393 66721
278220 71336 66560
277924 71340 66432
277557 71135 66319
277204 71147 66332
276939 71235 66293
276659 71321 66325
276410 71292 66272
276108 71365 66245
275844 71380 66170
275506 71313 66086
275221 71357 65966
274796 71314 65829
274412 71199 65629
274009 70963 65408
273584 70939 65287
273210 70844 65124
272917 70898 65073
272737 70917 64997
272789 70957 65194
273318 71049 65429
274264 71353 65905
275794 71706 66379
277602 71984 66880
279585 72321 67405
281640 72493 67862
283586 72788 68433
285385 73509 69306
287082 74150 70000
288250 74479 70430
289122 75011 70972
289781 75402 71412
290189 75698 71960
290405 76311 72654
290631 77076 73532
290847 77758 74689
290983 78898 75849
291225 80254 77057
291290 81237 78168
291250 82077 79214
291099 82971 80238
291107 84515 81718
291004 86078 83047
290760 87643 84337
290788 89489 86036
290993 91774 87773
291149 93673 88942
291105 94720 89751
290963 95963 90105
290749 96064 90104
290362 96089 89786
289869 95815 89297
289387 95473 88768
288969 95063 88296
288697 94950 87999
288601 94926 87828
288551 94973 87826
288648 95147 87877
288694 95416 88213
289044 96190 88459
289295 96381 88811
289701 97135 89426
290203 97944 90302
290873 99390 91636
291853 101344 93405
292866 103122 94784
293530 104162 95721
293999 105060 96517
294378 105381 96779
294180 105064 96696
293841 104751 96485
293344 104581 96508
293006 104560 96729
292760 104762 97129
292629 105316 97685
292365 105419 97851
291870 105398 97747
291319 105260 97644
290675 104988 97653
290140 105097 97663
289426 105154 97820
289213 105825 98670
289276 107263 100306
289811 108771 101474
289769 109471 102053
289662 110073 102359
289401 110449 102699
289323 110963 103187
289384 111598 103691
289815 112450 104594
290779 113325 105338
291883 113457 105334
293007 112890 104974
294250 112175 104555
295424 111418 103613
296154 108593 100688
295031 104040 96400
293471 99859 92572
291900 96455 89866
290966 93929 87912
290084 92276 86582
289383 91228 85638
288744 90273 85015
288275 89800 84717
287894 89791 84825
287830 90099 85151
287912 90901 86095
288461 92799 87444
289325 94550 89217
290620 96900 91101
291720 98828 92741
292783 100604 94393
293969 102358 95713
294481 102217 95102
293997 101335 94239
293237 100445 93037
292211 98729 91318
290915 97319 90146
289956 96920 89627
289197 96930 89536
288870 97111 89708
288589 97727 89995
288439 98053 90197
288359 98284 90200
288081 98622 90190
288049 98975 90169
288058 99505 90537
288234 100264 91063
288622 101119 92014
289166 101869 92400
289198 101987 92522
289245 102404 92726
289220 102664 92933
289166 102320 92684
288752 101761 91979
288134 101008 91208
287397 99876 90352
286558 99051 89610
285728 98586 88967
284940 97788 88532
284293 97615 88286
283676 97326 88403
283335 97865 88935
283202 98360 89614
283203 99157 90478
283370 100403 91599
283869 101920 93186
284677 103589 94728
285226 104601 95265
285224 104758 95174
284993 104766 95210
284850 104919 95222
284749 105147 95369
284661 105406 95578
284612 105721 95861
284646 106059 96080
284514 105993 95999
284248 105847 95909
284012 105904 95949
283747 105950 96045
283562 106160 96058
283285 106301 95992
283017 106418 95923
282759 106581 96029
282718 107017 96233
282722 107414 96606
282918 108188 97098
283238 108746 97707
283992 109386 98520
285199 110798 100033
287141 111951 101045
289051 112195 101483
291051 112342 101769
292894 112084 101713
294872 111796 101701
296368 111532 101617
296656 111111 101510
296656 110780 101345
296656 110447 101186
296656 110051 100934
296656 109676 100746
296656 109361 100659
296656 109214 100719
296656 109447 100999
296656 109704 101297
296656 110067 101629
296656 109731 101389
296656 109197 101047
296656 108749 100652
296656 108258 100220
296656 107829 100000
296656 108020 100053
296656 108182 100138
296645 108220 100033
296179 108410 100029
295771 108461 99966
295345 108712 99923
294946 108808 99893
294568 109036 99965
294463 109345 100115
294222 109757 100292
294194 109940 100453
294296 110351 100730
294424 111008 101222
294814 111463 101555
295357 111922 101882
295639 112268 102094
296060 112490 102273
296363 112671 102319
296528 112884 102418
296656 113104 102558
296656 113340 102843
296656 113747 103218
296656 114426 104073
296656 115034 104533
296656 115400 104843
296656 115739 105196
296656 115995 105428
296656 116296 105690
296656 116517 105763
296656 116627 105878
296656 116815 105932
296656 116993 105961
296656 117135 106067
296656 117298 106146
296656 117605 106304
296656 117763 106387
296656 118047 106580
296656 118362 106754
296656 118771 107069
296656 119120 107354
296656 119642 107698
296656 119973 107866
296656 120204 107868
296656 120314 107747
296453 120072 107588
296297 119860 107418
296007 119746 107296
295723 119711 107158
295518 119588 107135
295231 119827 107184
295050 119857 107221
294963 120003 107409
294763 120177 107454
294646 120206 107484
294531 120299 107525
294202 120389 107560
294065 120347 107634
293804 120561 107784
293547 120789 108009
293447 121233 108269
293376 121499 108536
293260 121726 108667
293133 122072 108825
293083 122146 108962
292996 122507 109072
292890 122664 109085
292754 122714 109223
292696 123069 109474
292725 123455 109835
292719 123794 110057
292640 124055 110187
292631 124234 110300
292517 124297 110434
292752 124662 110784
293268 124872 111095
294152 125079 111531
295508 125235 111849
296656 125363 112234
296656 125435 112521
296656 125329 112691
296656 125123 112763
296656 124778 112939
296656 124760 113130
296656 124766 113262
296656 124559 113414
296656 124553 113501
296656 124596 113557
296656 124548 113541
296656 124514 113600
296656 124625 113654
296656 124683 113868
296656 125071 114089
296656 125096 114254
296656 125209 114335
296656 125228 114435
296656 125553 114614
296656 125647 114839
296656 125973 115067
296656 126263 115205
296656 126447 115369
296656 126628 115467
296656 127004 115618
296656 127164 115621
296656 127218 115556
296656 127161 115329
296656 126873 115049
296656 126741 114835
296656 126444 114622
296656 126464 114667
296656 126765 115010
296656 127212 115490
296656 127470 115699
296656 127746 116051
296656 128188 116494
296656 128571 116910
296656 128747 117030
296656 128808 117138
296656 128779 117244
296656 128869 117406
296656 129062 117567
296656 129246 117710
296656 129443 117936
296656 129585 118103
296656 129861 118349
296656 130176 118715
296656 130681 119184
296656 131210 119501
296656 131477 119645
296656 131485 119603
296656 131325 119360
296656 131025 119042
296656 130720 118646
296656 130286 118236
296656 129847 117793
296656 129285 117222
296656 128507 116457
296656 127713 115821
296656 127041 115181
296656 126432 114694
296656 125848 114234
296656 125681 114077
296656 125251 113526
296656 124532 112962
296656 123998 112317
296656 123195 111573
296656 122623 110996
296656 122242 110509
296656 121895 110182
296656 121657 109765
296656 121360 109446
296436 121346 109323
296146 121231 109123
295985 121069 108925
295614 120812 108656
295308 120502 108366
294856 120197 108094
294361 119947 107855
293956 119762 107616
293580 119466 107403
293185 119232 107110
292798 118962 106773
292234 118527 106263
291628 117992 105772
291112 117573 105314
290509 117138 104973
290058 116976 104696
289505 116623 104396
289112 116404 104052
288628 116037 103614
288000 115666 103312
287626 115593 103161
287313 115497 103089
287159 115525 103043
287151 115436 103053
287471 115212 103005
288252 115118 103227
289641 115117 103488
291330 115052 103680
293347 114910 103771
295316 114751 103853
296656 114296 103690
296656 113800 103539
296656 113630 103581
296656 113352 103576
296656 113320 103675
296656 113492 103811
296656 113251 103807
296656 113106 103599
296656 112634 103214
296656 112082 102696
296656 111459 102212
296656 111166 101768
296656 110491 101138
296656 109933 100614
296656 109274 100007
296656 108846 99617
296656 108594 99299
296656 108397 99063
296656 108118 98762
296656 107969 98497
296656 107734 98154
296656 107333 97749
296214 107132 97387
295470 106939 96906
294833 106520 96471
294120 106263 96028
293501 105951 95545
292903 105328 94873
292211 104539 93853
291220 103384 92408
290106 102187 91207
289133 101375 90295
288304 100606 89275
287596 99621 88324
286931 98823 87640
286373 98244 87062
285796 97909 86631
285293 97474 86269
284749 96932 85780
284211 96372 85395
283676 95824 84791
282951 95055 84135
282256 93996 83374
281426 93224 82676
280662 92564 82099
279897 91872 81758
279330 91557 81466
278799 91365 81185
278307 91190 80950
277853 90963 80800
277467 90883 80581
277089 90864 80418
276737 90950 80339
276433 91027 80222
276124 91069 80087
275777 90976 79985
275396 90884 79832
275017 90907 79552
274481 90290 79091
273952 89816 78479
273167 89105 77753
272348 88361 77091
271508 87693 76476
270789 87282 76161
270148 86968 75765
269493 86625 75433
268903 86355 75126
268334 86025 75000
267850 85959 74747
267341 85866 74604
266975 85808 74454
266582 85826 74303
266284 85942 74342
265979 86066 74248
265769 85976 74177
265526 85850 73928
265164 85768 73739
264913 85686 73664
264666 85748 73543
264434 85724 73476
264237 85632 73441
264049 85598 73329
263793 85487 73175
263577 85399 73028
263272 85213 72910
262989 85164 72878
262768 85033 72785
262520 84964 72772
262320 85041 72864
262334 85170 73217
262789 85544 73785
263712 85913 74458
265272 86199 75177
267321 86528 75966
269825 87023 76784
272512 87189 77450
275220 87478 78148
277732 87688 78628
279953 87834 79133
281790 87946 79415
283121 88125 79664
284100 88132 79810
284690 88183 79874
285077 88271 79872
285098 87971 79652
285000 87745 79388
284682 87603 79212
284389 87389 79063
284100 87296 78982
283821 87253 78914
283510 87113 78809
283151 87020 78719
282733 86979 78568
282261 86824 78446
281748 86659 78243
281101 86456 78063
280465 86321 77854
279850 86151 77595
279234 85917 77350
278629 85820 77036
278093 85570 76829
277593 85471 76544
277163 85142 76413
276833 84987 76251
276536 85017 76202
276397 85018 76195
276255 84995 76135
276107 85044 76053
275980 84800 76073
275929 84848 76054
275820 84782 76017
275751 84936 76043
275612 84858 75965
275467 84897 76037
275263 84784 75927
275012 84696 75857
274684 84667 75736
274266 84599 75542
273853 84225 75187
273249 83866 74827
272716 83490 74479
272123 83142 74156
271619 82981 73954
271140 82930 73740
270705 82743 73622
270340 82507 73293
269881 82266 73044
269527 82104 72739
269153 82034 72647
268882 81965 72426
268571 81965 72330
268344 81947 72265
268041 81859 72024
267837 81664 71881
267450 81447 71626
267133 81395 71430
266771 81093 71156
266349 80871 70936
265919 80719 70675
265524 80520 70526
265122 80436 70354
264773 80517 70346
264583 80631 70365
264303 80748 70415
264174 80889 70431
264016 80874 70245
263723 80653 70026
263414 80500 69742
263090 80253 69490
262715 79791 69182
262286 79638 68959
261883 79366 68760
261500 79197 68723
261292 79337 68783
260982 79391 68813
260694 79361 68829
260369 79405 68913
260167 79409 69041
260094 79481 69323
260365 79782 69834
261219 79934 70362
262599 80059 70983
264552 80396 71626
266956 80753 72378
269741 81123 73241
272609 81686 74191
275413 82206 74995
277861 82425 75670
279876 82699 76202
281484 82978 76533
282573 83071 76794
283221 83208 76857
283587 83131 76923
283732 83048 76973
283695 83158 76988
283559 83201 77005
283323 83266 77017
283086 83406 77086
282854 83420 77144
282653 83441 77152
282352 83397 77077
282065 83360 77008
281692 83285 76839
281199 83309 76698
280708 83018 76446
280123 82809 76211
279522 82656 75914
278916 82513 75694
278388 82372 75496
277836 82297 75360
277431 82285 75250
277023 82243 75252
276749 82224 75208
276521 82219 75040
276358 81953 74883
276197 81927 74722
276136 81881 74691
276109 81853 74693
276093 81890 74790
276191 82101 74861
276186 82285 74980
276197 82210 74918
276057 82130 74863
275857 82186 74829
275609 82014 74738
275369 81946 74589
275017 81871 74351
274585 81481 74052
274082 81310 73741
273577 81126 73532
273057 80811 73215
272472 80606 72963
271975 80332 72629
271332 80011 72305
270789 79920 71976
270150 79625 71685
269662 79428 71472
269254 79416 71351
268867 79430 71313
268568 79359 71218
268272 79385 71148
267985 79254 71009
267669 79074 70928
267344 79120 70732
267011 78978 70566
266658 78927 70420
266307 78845 70296
265973 78756 70130
265592 78516 69909
265248 78440 69713
264862 78266 69466
264451 78185 69275
264091 78149 69097
263705 78041 68974
263381 78021 68904
263103 78142 68920
262890 78225 68912
262621 78312 68904
262353 78324 68780
262075 78117 68750
261853 78183 68822
261800 78299 69258
262319 78598 69940
263382 79019 70697
265025 79397 71575
267215 79862 72488
269708 80379 73480
272438 80826 74345
275094 81162 75129
277525 81584 75792
279544 81830 76337
281171 82057 76769
282304 82150 77009
283044 82111 77125
283474 82169 77063
283520 82053 77069
283376 81959 76875
283046 81880 76798
282640 81703 76585
282155 81479 76419
281695 81399 76156
281050 81293 75928
280553 81198 75751
280090 81048 75551
279609 80958 75353
279010 80873 75102
278466 80850 74893
277824 80652 74581
277221 80666 74483
276731 80628 74416
276248 80753 74448
275949 81040 74536
275698 81239 74657
275483 81511 74805
275391 81788 75024
275537 82018 75317
275630 82309 75599
275915 82862 76003
276273 83118 76381
276555 83500 76648
276653 83387 76644
276627 83124 76449
276281 82724 76032
275857 82339 75583
275367 81887 75119
274728 81568 74773
274242 81393 74607
273764 81276 74461
273293 81233 74352
272889 81260 74142
272407 81044 73876
271863 80783 73472
271249 80513 73119
270752 80257 72798
270177 80062 72562
269798 79984 72424
269364 79941 72433
269078 80058 72390
268677 79955 72231
268422 79946 72107
268035 79640 71913
267692 79680 71777
267437 79568 71629
267166 79526 71545
266886 79522 71397
266574 79351 71291
266276 79198 71040
265882 79092 70905
265563 78986 70708
265138 78935 70607
264825 78931 70491
264460 78721 70271
264101 78667 70099
263674 78473 69753
263266 78322 69561
262887 78062 69214
262370 77986 69036
262089 77816 69041
262003 77916 69420
262335 78203 69962
263175 78508 70742
264651 79012 71667
266696 79497 72648
269186 80000 73657
271790 80304 74509
274390 80908 75387
276893 81384 76125
279028 81731 76867
280787 82110 77340
282130 82443 77790
283136 82592 78027
283704 82750 78193
284080 82965 78261
284244 83049 78318
284233 83112 78253
284018 82985 78072
283743 82773 77888
283329 82760 77632
282946 82608 77440
282553 82270 77154
282003 82145 76907
281572 81966 76496
280864 81462 76057
280146 81244 75644
279353 80999 75230
278556 80737 74898
277793 80529 74611
277050 80320 74277
276348 80015 74010
275703 80008 73872
275153 79743 73577
274593 79568 73437
274201 79629 73326
273772 79502 73273
273501 79314 73225
273202 79312 73247
273062 79487 73229
272823 79447 73148
272640 79367 73081
272352 79326 72900
272143 79184 72736
271836 79038 72562
271550 79073 72418
271269 78898 72182
270884 78837 72026
270580 78701 71754
270162 78451 71591
269739 78288 71315
269247 78256 71151
268868 78171 71009
268494 78135 70901
268177 78025 70786
267837 77995 70655
267491 77941 70566
267241 77914 70420
266931 77998 70351
266604 77866 70163
266326 77846 70083
266060 77772 69969
265765 77778 69861
265523 77743 69743
265176 77565 69513
264851 77385 69352
264493 77299 69128
264110 77074 68928
263666 76915 68679
263301 76934 68507
262865 76749 68263
262403 76545 68137
262066 76564 68000
261646 76431 67866
261259 76389 67762
260960 76535 68012
260926 76700 68558
261344 76972 69250
262361 77350 70034
263892 77624 70880
265988 78133 71873
268356 78713 72749
270930 79040 73695
273422 79433 74435
275610 79646 75088
277459 79890 75527
278850 80093 75890
279835 80195 76051
280373 80234 76204
280665 80243 76181
280634 80130 76018
280394 79942 75837
280036 79877 75626
279579 79758 75437
279090 79723 75202
278633 79630 75086
278187 79540 74938
277727 79437 74770
277251 79348 74497
276712 79098 74212
276185 78991 73938
275512 78725 73565
274835 78497 73247
274183 78290 72961
273529 78197 72770
272959 78131 72605
272418 78170 72485
271925 78063 72301
271488 77902 72213
271129 77846 72105
270810 77874 72016
270528 77680 71852
270285 77538 71722
270097 77427 71592
269835 77192 71436
269688 77169 71279
269478 77019 71091
269227 76885 70934
268966 76713 70653
268574 76491 70462
268204 76212 70261
267886 76267 70141
267525 76182 69915
267099 76034 69681
266704 75863 69448
266205 75717 69241
265842 75598 69126
265558 75639 68959
265199 75742 68878
264927 75665 68760
264688 75705 68732
264418 75654 68599
264134 75624 68469
263866 75448 68266
263491 75331 68052
263144 75372 67817
262748 74998 67518
262330 74768 67281
261904 74557 67027
261524 74474 66950
261215 74700 66995
260975 74807 66929
260673 74594 66691
260201 74488 66542
259835 74432 66414
259421 74373 66307
259028 74350 66120
258623 74304 66203
258516 74367 66486
258548 74499 67097
259171 74974 67988
260433 75299 68924
262259 76066 70085
264699 76740 71256
267494 77333 72424
270457 77927 73513
273251 78489 74527
275859 79060 75356
277923 79320 75984
279585 79757 76450
280797 79908 76790
281642 80019 77004
282111 80076 76969
282277 79993 76953
282209 79927 76779
281979 79923 76635
281693 79800 76463
281351 79651 76333
281048 79637 76196
280664 79538 76117
280387 79556 76016
280041 79540 75895
279639 79516 75676
279111 79210 75394
278529 79209 75100
277922 78899 74745
277238 78753 74538
276658 78607 74182
276055 78560 74046
275516 78313 73903
275063 78330 73832
274741 78372 73779
274424 78137 73756
274256 78291 73722
274132 78238 73677
274020 78148 73681
274028 78249 73702
274039 78322 73664
273955 78122 73535
273811 78155 73461
273676 78117 73312
273481 77926 73172
273285 77915 73020
272954 77722 72896
272716 77681 72703
272308 77575 72467
271955 77459 72207
271556 77073 71994
271177 77065 71849
270817 77005 71642
270488 76922 71632
270160 77064 71494
269861 77049 71427
269576 76813 71211
269202 76739 71067
268937 76698 70892
268577 76570 70704
268278 76562 70519
267940 76459 70351
267700 76298 70188
267357 76138 70099
267145 76278 70088
266941 76333 70000
266729 76385 69946
266463 76235 69821
266184 76247 69779
265883 76123 69621
265524 76125 69441
265174 75972 69245
264764 75989 69110
264473 75872 69165
264434 75872 69521
264810 76098 70216
265812 76496 71044
267428 77007 72059
269670 77482 73115
272278 78209 74357
275211 78839 75606
278020 79518 76743
280681 80083 77690
282836 80460 78432
284396 80693 78926
285500 80777 79095
286136 80572 79124
286171 80374 78880
285976 80166 78627
285439 79865 78178
284743 79477 77783
284047 79314 77370
283241 78887 76914
282486 78461 76440
281744 78308 76122
281156 78188 75882
280593 78056 75702
280199 78133 75562
279716 78017 75277
279199 77910 75041
278613 77669 74669
277982 77577 74384
277296 77499 74057
276636 77157 73682
276080 76880 73274
275406 76606 72860
274885 76377 72606
274427 76215 72413
274058 76059 72211
273792 75856 72126
273685 75778 72050
273567 75772 72041
273530 75799 72084
273556 75818 72065
273556 75961 72065
273569 75880 71940
273429 75704 71847
273306 75587 71702
273033 75542 71557
272826 75480 71396
272448 75337 71163
272157 75027 70964
271808 74895 70685
271359 74663 70401
270961 74506 70150
270545 74459 69941
270119 74205 69656
269653 74070 69474
269258 74022 69256
268798 73886 69108
268441 73811 68923
268032 73629 68705
267645 73444 68471
267269 73225 68235
266866 73061 67984
266414 72891 67704
265984 72715 67488
265562 72442 67203
265075 72292 66964
264635 72162 66687
264133 71926 66404
263677 71744 66055
263136 71453 65778
262650 71387 65504
262119 71151 65253
261642 71107 65080
261194 70944 64953
260800 70940 65034
260567 71114 65352
260712 71402 66102
261439 71740 66933
262806 72218 67926
264868 72716 68997
267381 73280 70171
270364 73909 71410
273301 74569 72503
276116 75132 73465
278531 75525 74174
280503 75645 74688
281871 75717 74928
282786 75873 75085
283308 75898 75090
283434 75813 75055
283362 75881 74921
283080 75602 74822
282730 75532 74700
282301 75595 74609
281926 75583 74531
281444 75410 74270
281035 75295 74139
280585 75190 73916
280073 74941 73658
279460 74799 73291
278781 74716 72979
278129 74375 72615
277351 74278 72375
276660 74198 72089
275958 73852 71847
275348 73800 71663
274703 73735 71441
274213 73648 71315
273752 73434 71059
273330 73308 70908
272980 73139 70756
272722 73085 70724
272557 73143 70593
272366 73016 70520
272252 72925 70433
272044 72876 70351
271860 72702 70226
271703 72656 70089
271531 72727 70016
271266 72574 69729
270961 72408 69566
270552 72085 69189
270087 71795 68792
269612 71429 68302
269040 71084 67780
268475 70742 67418
267822 70409 67105
267291 70222 66793
266725 70023 66555
266166 69884 66387
265715 69904 66224
265267 69861 66082
264850 69658 65883
264408 69646 65753
263995 69513 65535
263549 69422 65406
263180 69502 65209
262749 69398 65027
262352 69166 64760
261872 68995 64466
261401 68814 64196
260848 68591 63872
260363 68485 63635
259900 68329 63341
259365 68088 63086
258885 67844 62719
258326 67575 62342
257793 67395 61981
257162 67312 61727
256666 67134 61525
256220 67035 61758
256112 67242 62440
256416 67659 63454
257443 68342 64652
259192 68969 65803
261537 69693 67058
264449 70168 68232
267589 70807 69400
270680 71239 70344
273477 71593 71127
275908 72090 71811
277774 72291 72356
279239 72623 72792
280304 72894 73162
281055 73158 73432
281487 73388 73582
281654 73466 73536
281644 73385 73349
281382 73146 72997
280968 72807 72522
280500 72504 72309
280065 72388 72144
279733 72510 72197
279466 72553 72096
279062 72505 72021
278723 72505 71870
278206 72412 71694
277638 72389 71409
277029 72164 71166
276472 72165 70891
275860 71900 70602
275308 71703 70410
274852 71659 70195
274402 71654 70120
274127 71543 70031
273909 71692 70035
273802 71595 70063
273806 71556 70056
273849 71649 69970
273804 71653 69941
273838 71680 69965
273907 71760 69941
273946 71759 70042
274037 71702 70034
274092 71925 70094
274053 72036 70081
274009 72153 70130
273999 72264 70119
273916 72232 70135
273916 72384 70174
273919 72558 70214
273874 72630 70238
273814 72613 70175
273768 72740 70116
273587 72476 69902
273368 72472 69816
273096 72361 69609
272753 72221 69458
272421 72130 69216
271988 71923 69011
271638 71784 68859
271197 71732 68764
270890 71633 68577
270449 71614 68387
270151 71477 68222
269756 71489 67966
269314 71142 67781
268895 71152 67581
268510 71062 67498
268123 71018 67272
267695 70943 67125
267301 70894 66911
266837 70746 66686
266373 70589 66501
265934 70423 66329
265638 70462 66457
265514 70642 66779
266002 70936 67485
267092 71302 68379
268884 71880 69455
271376 72437 70748
274250 73218 72131
277440 73893 73528
280681 74529 74805
283570 75051 75795
285965 75502 76676
287902 75811 77236
289184 76004 77549
289971 76205 77752
290297 76095 77749
290262 76003 77720
290154 75899 77605
289815 75885 77497
289483 75926 77387
289059 75943 77240
288624 75741 77055
288211 75514 76975
287852 75491 76757
287424 75249 76532
286938 75154 76295
286340 75059 75988
285738 74696 75654
284955 74507 75159
284071 74217 74815
283160 73874 74327
282232 73603 73954
281284 73271 73502
280337 72860 73068
279421 72441 72634
278514 72073 72242
277819 71869 72019
277161 71707 71838
276771 71775 71784
276469 71686 71647
276210 71626 71626
276012 71614 71546
275783 71679 71455
275607 71537 71329
275342 71498 71198
275129 71473 71037
274715 71248 70844
274400 71137 70645
273938 71004 70395
273513 70802 70179
273012 70685 69960
272544 70701 69806
272039 70375 69490
271516 70200 69222
270993 70143 68891
270423 69923 68633
269892 69793 68368
269346 69777 68162
268878 69491 67893
268288 69344 67671
267856 69402 67447
267446 69228 67278
267046 69206 67140
266667 69165 66960
266264 69026 66828
265907 68836 66594
265522 68897 66459
265166 68820 66248
264736 68693 66098
264380 68682 65945
264013 68563 65810
263580 68406 65656
263143 68422 65472
262752 68473 65387
262376 68336 65261
262031 68468 65317
261854 68440 65623
262063 68737 66300
262872 69221 67154
264294 69809 68221
266490 70366 69432
269243 71081 70776
272415 71792 72114
275643 72326 73453
278879 73019 74621
281669 73555 75522
284037 73871 76209
285721 74148 76580
286795 74163 76781
287372 74088 76806
287591 74054 76753
287604 74129 76665
287348 73922 76599
287114 74014 76488
286764 73686 76330
286419 73500 76144
286056 73504 76038
285752 73465 75962
285442 73342 75915
285155 73391 75849
284817 73262 75660
284365 73080 75460
283834 73019 75117
283122 72854 74754
282334 72637 74372
281512 72389 73988
280728 72289 73680
279931 72073 73371
279248 71952 73141
278579 71819 72865
278030 71637 72697
277612 71668 72564
277236 71557 72465
276986 71460 72408
276782 71507 72365
276678 71518 72196
276479 71465 72072
276383 71243 71986
276141 71252 71851
275872 71032 71697
275638 71063 71582
275381 71106 71462
275049 71046 71258
274699 70941 71108
274393 70797 70895
273919 70559 70668
273489 70448 70405
272942 70389 70119
272413 70306 69822
271869 70054 69590
271392 69966 69288
270815 69705 69001
270323 69523 68744
269777 69471 68441
269255 69348 68190
268741 69166 67939
268266 68998 67731
267753 68864 67453
267218 68778 67316
266812 68826 67070
266322 68668 66921
265945 68515 66776
265487 68472 66565
265058 68352 66352
264623 68218 66111
264207 68165 65885
263792 67979 65605
263356 67809 65483
263050 67730 65272
262594 67566 65042
262180 67562 64845
261736 67518 64598
261352 67397 64341
260833 67221 64113
260460 66982 63844
259922 66865 63577
259488 66757 63393
259074 66743 63432
258869 66900 63906
259146 67124 64794
260108 67755 65896
261829 68299 67127
264330 69100 68573
267443 69962 69999
270827 70763 71547
274368 71491 72930
277639 72081 74129
280495 72640 75107
282683 72867 75775
284320 73192 76181
285326 73216 76377
285869 73291 76540
286137 73264 76499
286128 73199 76529
285999 73287 76441
285756 73164 76382
285548 73156 76300
285309 73140 76265
285153 73005 76214
284884 73019 76187
284783 73154 76215
284565 72985 76122
284368 73064 75992
283987 72805 75707
283435 72693 75356
282735 72363 74901
281931 72228 74492
281167 71902 74059
280276 71755 73599
279369 71445 73150
278498 71103 72716
277663 70774 72369
276823 70521 71971
276176 70363 71693
275610 70227 71430
275132 70043 71351
274846 70028 71191
274631 70008 71224
274520 70130 71205
274467 70134 71174
274355 70119 71142
274217 70014 71119
274147 70028 71013
273896 69884 70917
273719 69936 70796
273443 69915 70632
273106 69846 70439
272776 69690 70237
272370 69543 69956
271890 69337 69640
271341 69214 69409
270812 69103 69094
270211 68824 68746
269657 68720 68464
269067 68424 68147
268482 68300 67870
267855 68073 67573
267369 68091 67331
266804 67781 66950
266245 67594 66657
265699 67282 66248
264955 66965 65850
264347 66821 65436
263731 66662 65131
263169 66297 64749
262463 65961 64358
261903 65718 63948
261256 65325 63495
260628 65138 63077
259930 64916 62642
259313 64590 62292
258710 64339 61982
258122 64194 61720
257609 64010 61489
257035 63959 61324
256602 63913 61068
256047 63785 60853
255643 63703 60669
255130 63456 60392
254663 63426 60214
254187 63361 60022
253825 63313 59912
253388 63124 59655
252988 63030 59453
252541 62933 59218
252098 62753 59014
251673 62742 58797
251216 62551 58598
250842 62432 58393
250326 62459 58278
249999 62448 58130
249557 62265 57976
249188 62292 57931
248878 62425 58223
248835 62726 59153
249324 63319 60481
250612 64052 62005
252635 64765 63434
255384 65594 64973
258780 66410 66476
262466 67149 67911
266087 67816 69185
269359 68301 70230
272259 68755 71062
274455 69136 71635
276152 69372 71991
277236 69565 72156
277793 69412 72187
278083 69332 72114
278075 69243 72018
277919 69256 71860
277647 69108 71705
277356 69062 71521
277000 68812 71424
276780 68800 71391
276604 68710 71336
276492 68750 71256
276334 68722 71156
276050 68741 70984
275706 68405 70664
275171 68174 70349
274523 68156 69943
273739 67919 69609
273036 67790 69272
272314 67620 68951
271582 67338 68620
270887 67214 68325
270326 67024 68139
269721 66887 67889
269300 67009 67799
268912 66758 67678
268668 66744 67684
268474 66701 67655
268373 66862 67716
268315 66907 67715
268244 67035 67706
268255 67045 67720
268141 66882 67606
268030 66772 67489
267829 66575 67259
267566 66512 67062
267264 66520 66801
266897 66290 66602
266446 66141 66369
266009 65959 66144
265570 65920 65878
265063 65907 65700
264662 65806 65469
264163 65663 65286
263727 65573 65062
263228 65303 64813
262814 65344 64617
262327 65165 64362
261856 65051 64151
261362 65032 63883
260881 64866 63649
260417 64690 63384
259986 64599 63223
259530 64594 62944
259069 64371 62794
258694 64434 62621
258223 64250 62424
257803 64078 62196
257339 63886 61933
256888 63821 61708
256445 63638 61427
256055 63710 61278
255598 63541 61067
255151 63428 60913
254809 63409 60689
254353 63402 60493
253990 63231 60289
253584 63172 60128
253169 63113 59954
252716 62917 59770
252402 62913 59569
251937 62778 59341
251557 62710 59154
251176 62553 58922
250767 62492 58774
250389 62312 58587
250025 62282 58454
249659 62352 58329
249326 62341 58231
249028 62120 57993
248627 62103 57802
248286 61920 57644
247870 61696 57329
247442 61709 57067
247015 61525 56777
246541 61341 56533
246127 61311 56307
245743 61141 56369
245507 61402 56789
245577 61893 57931
246283 62616 59355
247576 63228 60775
249646 63994 62224
252296 64674 63697
255562 65508 65213
259015 66369 66544
262389 67090 67763
265519 67608 68749
268128 68025 69539
270256 68337 70047
271745 68587 70414
272806 68815 70588
273363 68840 70655
273666 68917 70631
273640 68732 70498
273499 68620 70387
273212 68642 70138
272941 68516 69961
272566 68414 69714
272227 68425 69586
271966 68188 69425
271677 68108 69326
271400 68157 69139
271023 68048 68931
270615 67967 68625
270016 67793 68230
269347 67484 67823
268585 67280 67446
267960 67250 67179
267322 67127 66840
266705 67025 66649
266204 66876 66417
265645 66607 66182
265159 66383 65831
264595 66262 65687
264291 66348 65660
264091 66451 65863
264131 66535 66075
264087 66648 66288
264158 66831 66483
264039 66882 66391
263754 66739 65990
263126 66125 65133
262381 65352 64278
261512 64732 63519
260688 64327 63040
260038 64036 62679
259309 63901 62413
258730 63750 62204
258144 63574 61873
257530 63324 61439
256825 62998 61049
256152 62686 60623
255491 62465 60166
254807 62266 59817
254185 61996 59448
253508 61732 59062
252916 61473 58687
252305 61262 58328
251721 61348 58161
251174 61250 57963
250689 61088 57604
250123 60832 57066
249405 60244 56343
248558 59714 55510
247742 59376 54878
246957 58742 54391
246332 58705 54331
245930 58800 54489
245603 58910 54534
245146 58859 54264
244597 58612 54100
244110 58310 53711
243444 57696 53300
242756 57088 52469
241720 56335 51552
240783 55780 51018
240043 55449 50447
239266 55168 49753
238667 54297 49070
237704 54125 48702
237171 53934 48249
236593 53899 47943
236113 53909 47609
235643 53978 47430
235275 53965 47274
234963 54044 47157
234668 53905 47009
234411 53894 46800
234019 53649 46461
233571 53292 45898
232938 52573 45266
232292 51905 44534
231486 51409 43929
230844 50897 43531
230241 50677 43646
230043 50731 44718
230258 51245 46366
230940 51985 48474
232121 52831 50464
233990 53643 52114
236281 54245 53488
238841 55024 54746
241551 55527 55849
244233 55996 56757
246626 56495 57344
248545 56538 57727
250036 56582 57781
250875 56468 57723
251482 56353 57593
251783 56075 57342
251893 55997 57141
251744 55931 56897
251608 55747 56673
251326 55574 56357
250937 55279 56080
250522 55046 55731
250002 54841 55447
249536 54501 55026
248941 54166 54626
248319 53839 54138
247582 53334 53504
246839 52797 52844
245930 52293 52157
245106 52026 51538
244248 51686 51007
243390 51356 50474
242609 51071 50128
241900 50870 49914
241301 50857 49827
240689 50926 49797
240217 50790 49667
239629 50433 49466
239184 50408 49389
238714 50133 49309
238369 50066 49245
238012 50054 49148
237779 49982 49125
237518 49922 48955
237112 49892 48779
236809 49672 48507
236360 49454 48247
235976 49398 47871
235496 49164 47457
234975 48960 47049
234445 48718 46631
233953 48355 46140
233372 48072 45701
232861 47971 45281
232319 47498 44769
231744 47182 44357
231216 47060 43861
230622 46569 43365
230030 46195 42894
229465 46054 42527
228998 45760 42068
228415 45474 41620
227859 45221 41236
227355 44756 40842
226874 44590 40558
226386 44615 40190
225985 44490 40035
225501 44285 39679
225051 43960 39478
224670 43763 39062
224108 43425 38708
223715 43436 81723
223258 43210 81472
222858 42997 81209
222351 42745 80979
221988 42632 80755
221519 42406 80528
221093 42299 80310
220639 42213 79996
220115 41778 79749
219669 41548 79408
219163 41364 79156
218663 41085 78851
218211 40867 78744
217924 40915 78606
217573 40750 78423
217270 40723 78256
216904 40606 78068
216549 40271 77804
216079 40092 77521
215697 40005 77379
215331 39771 77248
214991 39826 77517
214954 40321 78298
215191 40971 79685
216010 41987 81677
217128 43156 83936
218547 43926 85866
220180 44850 87666
222240 45709 89063
224353 46107 89966
226366 46711 90671
228185 47078 91125
229745 47201 91420
230990 47314 91564
231886 47251 91544
232507 47166 91413
232792 47156 91206
232969 47048 90874
232847 46592 90486
232697 46467 90166
232520 46088 89830
232327 46020 89590
232115 45986 89384
231982 45903 89246
231814 45746 89054
231648 45629 88926
231431 45437 88618
231133 45180 88291
230729 45045 87812
230239 44867 87196
229677 44398 86636
228960 43834 85988
228417 43544 85524
227838 43330 85066
227309 43219 84785
226875 43262 84593
226541 43076 84567
226215 42930 84513
225951 42992 84541
225767 43044 84552
225506 42908 84646
225411 43170 84699
225208 43068 84642
225007 42914 84668
224825 42836 84452
224548 42757 84338
224286 42614 84127
224063 42654 83964
223764 42357 83657
223390 42082 83387
223069 41963 82958
222617 41785 82591
222161 41435 82078
221633 41073 81594
221092 40757 81012
220423 40219 80454
219902 39959 79986
219304 39648 79451
218713 39207 78979
218183 38985 78555
217691 69246 78271
217163 68802 77875
216626 68596 77549
216160 68432 77233
215633 68204 76896
215237 68199 76656
214790 67914 76402
214420 67624 76159
214043 67517 75957
213706 67490 75791
213352 67323 75582
212968 67229 75455
212650 67151 75194
212262 66895 75045
211968 66728 74763
211579 66657 74500
211246 66385 74298
210873 66212 74041
210523 66226 73805
210098 66016 73619
209804 65855 73400
209512 65745 73221
209196 65732 73098
208936 65650 72925
208638 65587 72950
208448 65614 73207
208473 66014 73977
208820 66751 75207
209466 67499 77049
210643 68618 79174
211917 69509 81009
213401 70160 82683
215104 70939 84083
217025 71525 84988
218857 71835 85571
220523 72241 86035
221957 72442 86228
223056 72378 86396
223977 72394 86366
224506 72377 86238
224865 72222 86008
225048 72070 85757
225130 72104 85490
225058 71787 85213
225023 71791 85034
224934 71690 84867
224883 71668 84755
224833 71623 84576
224744 71672 84468
224617 71552 84145
224383 71341 83864
224150 71151 83369
223729 70928 82976
223334 70744 82448
222860 70513 81926
222408 70167 81547
221938 69878 81155
221568 69884 80893
221171 69818 80731
220934 69783 80663
220708 69769 80689
220505 69729 80711
220310 69684 80733
220167 69702 80798
220070 69797 80782
219900 69679 80839
219898 69899 80830
219760 69706 80764
219615 69660 80716
219469 69727 80543
219259 69641 80391
219063 69515 80143
218787 69475 79806
218439 69102 79481
218058 68868 79140
217748 68743 78825
217424 68597 78543
217091 68535 78248
216732 68426 77979
216448 68244 77754
216038 68061 77428
215770 67907 77193
215393 67806 76855
215024 67694 76676
214733 67480 76391
214375 67346 76221
214125 67287 76028
213808 67158 75832
213503 67075 75602
213186 66980 75368
212906 66820 75160
212566 66640 74941
212297 66542 74760
212001 66434 74513
211657 66322 74360
211373 66196 74091
211009 66083 73875
210693 65944 73650
210302 65707 73394
210035 65544 73161
209659 65450 73004
209330 65434 72936
209171 65492 73223
209205 65994 73997
209551 66581 75321
210432 67472 77289
211507 68583 79268
212859 69537 81057
214483 70272 82603
216273 70923 83886
218303 71470 84747
220195 71851 85384
221990 72145 85885
223464 72344 86174
224677 72567 86308
225560 72458 86342
226163 72487 86253
226536 72277 86047
226696 72223 85796
226725 72148 85464
226670 72036 85228
226566 71866 84970
226412 71724 84759
226337 71685 84618
226152 71676 84483
226022 71645 84261
225782 71486 83946
225481 71263 83478
224981 71016 82921
224501 70721 82342
223937 70421 81774
223438 70281 81424
223060 70116 81095
222616 69916 80905
222330 69995 80791
222034 69958 80810
221836 70122 80855
221669 70249 81061
221718 70395 81238
221584 70348 81319
221593 70407 81403
221486 70311 81317
221302 70251 81254
221140 70218 81067
220945 70118 80945
220737 69951 80722
220403 69760 80486
220211 69756 80269
219900 69509 80025
219676 69488 79759
219434 69412 79530
219119 69145 79263
218755 68977 78975
218483 68959 78695
218111 68624 78275
217767 68497 78014
217367 68418 77674
217011 68117 77435
216655 67964 77127
216292 67900 76896
215957 67840 76652
215614 67643 76421
215339 67718 76208
215004 67362 76060
214785 67515 75975
214571 67402 75802
214318 67413 75673
214102 67288 75469
213798 67206 75245
213476 66805 74926
213072 66627 74694
212769 66634 74412
212390 66453 74152
212042 66351 73890
211656 66240 73660
211380 66100 73505
211054 66011 73399
210851 66076 73511
210797 66481 74036
211002 67038 75262
211740 68024 77018
212711 68795 79138
214100 69779 80995
215765 70736 82785
217954 71596 84236
220249 72163 85324
222643 72836 86118
224808 73176 86807
226861 73478 87327
228666 73771 87601
230115 73983 87799
231198 73992 87877
232119 74133 87969
232865 74195 87977
233243 74088 87868
233583 74082 87737
233764 74179 87688
233900 74012 87586
233858 74009 87493
233887 74040 87481
233831 73785 87384
233751 73821 87265
233639 73716 86959
233314 73485 86682
233001 73384 86242
232507 73137 85882
232026 72843 85387
231466 72734 85054
231025 72551 84679
230498 72368 84388
230137 72381 84246
229714 72346 84063
229360 72260 84063
229122 72303 84013
228884 72404 84007
228662 72271 83968
228435 72323 84003
228286 72302 83945
228091 72092 83945
227972 72146 83932
227785 72165 83903
227632 72138 83816
227449 72105 83724
227261 72118 83577
227028 71889 83353
226810 71847 83192
226516 71804 82971
226207 71694 82766
225929 71615 82521
225582 71392 82229
225247 71300 81926
224860 71155 81705
224545 71012 81431
224099 70996 81137
223806 70848 80937
223377 70619 80662
223009 70544 80514
222702 70399 80316
222421 70522 80176
222093 70367 79967
221833 70313 79910
221631 70389 79724
221295 70115 79552
221041 70102 79383
220738 70081 79198
220438 70171 79029
220105 69977 78836
219877 69966 78664
219545 69729 78396
219228 69667 78247
218965 69644 77958
218628 69652 77816
218357 69477 77636
218031 69421 77690
217928 69653 78109
217984 70092 79210
218546 70740 80755
219409 71615 82484
220762 72360 84259
222683 73165 85607
224914 73798 86721
227431 74320 87623
230061 74833 88436
232560 75342 89031
234811 75669 89593
236761 75833 89950
238343 76092 90355
239730 76547 90532
240686 76491 90539
241332 76642 90563
241828 76643 90571
242208 76685 90535
242453 76575 90528
242729 76797 90583
242997 76768 90603
243222 76887 90626
243392 76952 90511
243433 76666 90343
243337 76436 90020
242999 76323 89641
242596 75952 89180
242010 75733 88655
241373 75447 88278
240795 75062 87915
240202 74996 87642
239643 74836 87332
239193 74763 87170
238674 74678 86957
238182 74636 86895
237842 74545 86775
237427 74466 86785
237197 74483 86758
237040 74391 86799
236912 74519 86825
236765 74463 86780
236708 74384 86800
236569 74309 86745
236462 74422 86704
236324 74295 86523
236106 74200 86419
235952 74144 86250
235704 74080 86130
235482 74036 85892
235110 73903 85717
234864 73860 85467
234446 73710 85211
234084 73633 84998
233750 73428 84751
233368 73321 84590
233045 73258 84354
232698 73146 84206
232287 73138 83920
231889 73013 83787
231559 72934 83500
231119 72589 83262
230729 72637 83003
230306 72437 82749
229924 72378 82514
229463 72130 82190
229049 72012 81943
228619 71794 81640
228206 71726 81386
227776 71619 81054
227330 71437 80775
226916 71307 80469
226481 71122 80194
226090 70920 79894
225626 70838 79669
225283 70751 79485
224908 70711 79444
224651 70875 79895
224684 71142 80862
225031 71701 82340
225843 72536 83939
227172 73291 85343
228953 73925 86480
231125 74530 87593
233680 75164 88556
236222 75590 89383
238668 76116 90106
240858 76524 90628
242690 76680 91008
244013 76863 91140
244926 76840 91176
245512 76745 91240
245903 77010 91286
246193 77089 91316
246372 77117 91279
246389 77122 91066
246218 76754 90840
246004 76638 90602
245646 76626 90401
245471 76578 90207
245126 76442 89964
244799 76458 89741
244359 76154 89361
243878 76021 89033
243245 75728 88543
242571 75652 88207
241970 75507 87867
241234 75222 87570
240722 75133 87396
240170 75048 87326
239777 75061 87356
239444 75081 87447
239250 75145 87569
239052 75139 87674
239036 75250 87845
238972 75245 87817
238891 75195 87847
238801 75317 87853
238726 75315 87824
238587 75125 87690
238440 75053 87536
238264 75025 87453
238039 75021 87378
237805 75085 87221
237506 74943 87059
237205 74680 86818
236859 74541 86514
236395 74458 86224
235983 74146 85904
235501 74129 85658
235072 74013 85346
234579 73644 85146
234258 73823 85050
233977 73796 85007
233711 73905 85005
233460 74151 85078
233333 74415 85287
233292 74601 85479
233278 74916 85767
233325 75152 85814
233209 75183 85793
233041 75276 85652
232766 75276 85562
232526 75181 85390
232185 75054 85189
231849 74875 84925
231390 74691 84567
230940 74390 84172
230375 73957 83685
229796 73617 83316
229242 73373 83061
228856 73356 83304
228667 73553 84038
228855 74147 85407
229665 74953 86851
231045 75431 88036
232870 76108 89141
235156 76588 90172
237779 77239 91103
240427 77666 91857
243094 78119 92574
245415 78375 93063
247385 78587 93467
248977 78651 93665
250123 78824 93838
251012 78850 93862
251521 78836 93862
251826 78828 93769
251951 78634 93692
251906 78591 93491
251668 78449 93389
251464 78476 93262
251236 78310 93073
250932 78230 92971
250608 78023 92772
250303 78003 92559
249851 77781 92215
249299 77680 91894
248642 77509 91493
247992 77218 91155
247319 77040 90813
246648 76887 90477
246034 76824 90246
245423 76777 90113
244993 76682 90055
244598 76599 89946
244293 76518 89978
244115 76547 90034
243892 76730 90047
243761 76747 90031
243655 76578 90013
243535 76464 89901
243364 76371 89819
243222 76173 89680
242900 76176 89504
242620 76183 89373
242308 75954 89187
241950 75866 88967
241612 75646 88730
241184 75484 88504
240775 75455 88206
240319 75335 87961
239864 75110 87641
239349 74842 87371
238896 74707 87116
238404 74444 86811
237940 74389 86532
237377 74255 86270
236972 74135 86086
236541 74042 85859
236115 73944 85651
235724 73706 85376
235267 73631 85085
234817 73457 84777
234326 73278 84436
233814 72998 84070
233270 72820 83688
232802 72589 83304
232283 72369 82983
231787 72240 82616
231267 72015 82244
230789 71806 81993
230259 71609 81768
229911 71672 82047
229722 71868 82758
229828 72556 84110
230442 73223 85638
231459 73922 87040
233089 74466 88166
235088 75063 89246
237463 75730 90255
240033 76315 91146
242579 76904 91962
244909 77131 92583
246933 77549 93066
248522 77769 93367
249660 77800 93547
250456 77892 93575
250973 77987 93604
251260 77712 93471
251259 77844 93415
251340 77836 93332
251177 77695 93214
251058 77771 93143
250897 77786 93064
250767 77460 92904
250520 77451 92707
250212 77343 92540
249943 77260 92332
249485 77336 92156
249084 77330 91888
248570 77049 91723
248114 76977 91547
247669 76979 91380
247189 76848 91167
246682 76917 91001
246340 77007 91047
246051 76775 91071
245871 76912 91239
245855 77056 91398
245899 77294 91635
246065 77541 91816
246231 77701 91917
246414 77675 92015
246476 77629 91998
246618 77695 91929
246561 77606 91857
246587 77664 91824
246498 77690 91754
246383 77572 91699
246255 77583 91584
246014 77591 91494
245831 77615 91280
245496 77566 91138
245305 77773 90968
245038 77812 90985
244991 77947 91015
244793 78012 90870
244569 78187 91001
244382 78115 90859
244096 77927 90691
243634 77661 90319
243090 77188 89869
242403 76670 89170
241518 76138 88509
240742 75514 87865
239905 75147 87363
239316 74839 86992
238701 74489 86671
238238 74369 86410
237702 74351 86307
237353 74508 86450
237264 74832 86836
237297 75308 87508
237556 75923 88428
238172 76824 89613
239370 77701 90804
241180 78543 92215
243900 79540 93622
247048 80382 95041
250593 81170 96255
254143 81925 97378
257340 82513 98191
259998 82892 98828
262144 83368 99328
263816 83495 99620
264947 83594 99877
265837 83780 99947
266260 83599 99957
266440 83384 99764
266281 83035 99543
266012 82461 99205
265590 82194 98920
265454 82010 98881
265302 81764 98711
265112 81578 98616
264986 81521 98520
264808 81321 98528
264611 81247 98394
264307 81289 98285
263844 81213 98009
263154 81045 97713
262482 80991 97443
261756 80783 97106
260954 80665 96657
260109 80390 96324
259335 80165 95996
258510 79954 95627
257844 79799 95478
257250 79582 95260
256669 79500 95193
256219 79354 95044
255778 79252 94985
255409 79194 94863
255009 79069 94745
254623 79014 94578
254171 78843 94403
253762 78790 94204
253341 78576 93970
252878 78492 93752
252375 78436 93478
251936 78210 93244
251371 78095 92965
250824 78051 92690
250339 77797 92439
249777 77784 92157
249303 77693 91856
248796 77446 91633
248263 77300 91453
247757 77266 91243
247348 77211 91083
246902 77168 90905
246448 77050 90733
245959 76772 90403
245462 76588 90262
245058 76620 90007
244595 76453 89882
244196 76452 89714
243805 76600 89649
243512 76321 89562
243178 76315 89444
242890 76476 89345
242604 76452 89293
242338 76476 89206
242044 76591 89072
241785 76264 88942
241427 76185 88678
241025 76271 88618
240714 76199 88681
240555 76394 89101
240707 76780 89921
241328 77237 90983
242680 77738 92123
244770 78503 93399
247590 79268 94735
250906 80013 96045
254456 80802 97299
257835 81303 98310
260888 81809 99198
263414 82338 99775
265432 82562 100291
266956 82734 100613
268099 82910 100835
268896 82885 100944
269356 82886 101007
269615 83065 101030
269786 83099 101034
269855 83058 101030
269905 83039 100995
269895 83046 101003
269962 82792 101022
269976 82983 101015
270017 82979 100980
269856 82873 100863
269598 82691 100672
269204 82553 100371
268649 82244 99978
267909 81996 99552
267077 81890 99124
266273 81462 98710
265400 81357 98385
264622 81208 98017
263860 80874 97803
263197 80837 97558
262612 80836 97458
262120 80741 97291
261695 80631 97246
261412 80708 97220
261163 80537 97220
260998 80594 97224
260821 80677 97205
260684 80608 97188
260543 80617 97085
260342 80648 97033
260175 80468 96876
259872 80395 96717
259577 80395 96536
259232 80250 96380
258827 80211 96169
258363 79953 95899
257884 79776 95579
257264 79527 95239
256740 79505 94961
256099 79167 94617
255515 79055 94370
254929 78929 94068
254380 78762 93848
253851 78656 93561
253225 78500 93343
252672 78322 93027
252085 78248 92766
251584 78043 92467
250986 77772 92186
250472 77694 91969
249926 77618 91627
249402 77420 91399
248843 77264 91110
248363 77202 90885
247869 76906 90601
247294 76811 90322
246846 76750 90076
246345 76603 89871
245889 76499 89649
245402 76269 89430
244977 76215 89169
244474 75949 88913
244020 75884 88627
243591 75744 88338
243052 75467 88149
242606 75311 87868
242178 75314 87644
241705 75088 87367
241250 75194 87163
240866 75025 86918
240400 74866 86757
240026 74705 86546
239649 74634 86374
239254 74587 86199
238886 74525 85990
238523 74469 85797
238110 74261 85589
237715 74178 85448
237364 74011 85190
236942 73969 85031
236634 73908 84822
236230 73854 84636
235890 73683 84457
235543 73519 84263
235163 73324 84062
234831 73264 83785
234449 73214 83590
234100 72989 83317
233722 72861 83163
233435 72669 82917
233053 72645 82769
232764 72635 82797
232530 72857 83437
232735 73542 85042
233433 74394 87121
234971 75318 88871
237277 76410 90512
240490 77278 92052
244261 78197 93587
248383 79073 94979
252395 79705 96226
256097 80376 97272
259369 80868 98028
261873 81220 98589
263924 81490 98976
265398 81644 99224
266389 81741 99359
267126 81781 99502
267631 81843 99561
267890 81834 99503
268048 81817 99511
268137 81840 99493
268183 81799 99529
268217 81826 99531
268272 81700 99594
268315 81900 99589
268307 81990 99620
268236 81813 99496
267992 81718 99302
267674 81655 99061
267110 81401 98722
266512 81338 98388
265876 81117 98111
265233 81059 97891
264563 80814 97656
263990 80806 97499
263481 80594 97305
262923 80528 97164
262531 80673 97058
262152 80497 97006
261837 80397 96985
261593 80417 96966
261489 80375 96968
261288 80443 96964
261263 80518 97042
261243 80548 96989
261144 80583 97038
261092 80685 97018
260945 80565 96972
260829 80576 96912
260591 80701 96909
260446 80707 96828
260160 80531 96662
259775 80486 96472
259309 80406 96260
258873 80210 96108
258388 80122 95839
257939 80104 95635
257397 79796 95365
256814 79623 95123
256298 79446 94821
255637 79323 94638
255184 79249 94436
254676 79278 94342
254243 79104 94148
253718 79060 94043
253343 79111 93902
252797 78876 93713
252415 78808 93428
251831 78627 93109
251247 78302 92860
250697 78164 92567
250143 78024 92332
249626 77854 92073
249071 77725 91873
248593 77662 91669
248042 77372 91416
247600 77299 91162
247013 77173 90873
246559 76964 90643
246017 76862 90379
245614 76785 90176
245100 76476 89867
244567 76244 89615
244077 76136 89271
243556 75869 88988
242948 75814 88624
242420 75733 88424
242007 75427 88162
241399 75158 87855
240971 75162 87626
240461 74873 87341
240011 74978 87194
239661 74755 86997
239262 74611 86906
238880 74571 86715
238466 74484 86617
238167 74596 86447
237705 74553 86353
237443 74415 86231
237068 74288 86043
236701 74133 85878
236327 74009 85701
235995 73921 85473
235599 73738 85177
235241 73586 84929
234787 73302 84567
234332 73125 84319
233935 73129 84081
233562 73043 83918
233208 72887 83663
232823 72824 83587
232534 72782 83810
232363 73038 84523
232503 73693 85980
233215 74586 87709
234540 75504 89271
236610 76313 90651
239299 77076 92061
242466 77790 93378
245807 78591 94546
249069 79094 95550
251919 79569 96446
254508 80111 97163
256477 80374 97645
258085 80522 98058
259298 80910 98279
260112 80964 98444
260606 81003 98510
260953 81234 98632
261172 81253 98609
261293 81174 98652
261428 81295 98648
261414 81425 98687
261444 81237 98618
261320 81274 98532
261167 81083 98449
260842 81081 98378
260611 81175 98223
260156 81050 97972
259607 80836 97762
259146 80826 97470
258515 80489 97158
257926 80393 96957
257387 80310 96821
256922 80302 96686
256461 80263 96579
256038 80172 96419
255585 80033 96364
255246 80019 96327
254945 80022 96326
254835 80022 96372
254643 79954 96318
254552 80104 96367
254473 80019 96337
254313 80031 96320
254234 80012 96240
253995 79907 96135
253763 79797 95941
253460 79725 95827
253152 79582 95687
252800 79528 95539
252491 79563 95499
252168 79497 95345
251809 79554 95246
251531 79409 95140
251256 79327 95088
250941 79424 94971
250667 79456 94944
250433 79561 94919
250202 79705 94987
250054 79653 94914
249823 79695 94829
249561 79693 94691
249260 79493 94490
248931 79487 94376
248505 79295 94111
248039 79137 93806
247493 78667 93362
246748 78385 92915
246121 78050 92409
245382 77726 91854
244666 77336 91191
243874 76961 90674
243216 76642 90218
242603 76192 89566
241903 75801 88960
241214 75314 88201
240470 75057 87658
239833 74621 87073
239210 74244 86587
238652 73962 86057
237973 73677 85647
237472 73503 85157
236857 73190 84673
236338 72937 84230
235778 72476 83788
235267 72257 83413
234821 72170 83061
234390 72048 82786
233934 71845 82493
233584 71681 82357
233285 71611 82156
232923 71511 81929
232644 71388 81692
232263 71220 81423
231942 71232 81209
231567 71126 81054
231220 70913 80763
230837 70746 80529
230528 70749 80377
230218 70694 80256
229956 70721 80521
229881 71146 81272
230043 71768 82920
230645 72898 85277
231745 74251 87532
233595 75147 89225
235927 76173 90701
238874 77134 92137
242104 77830 93428
245517 78625 94621
248774 79392 95671
251900 80107 96622
254555 80724 97362
256869 81288 98053
258779 81617 98536
260371 81987 98974
261646 82387 99231
262685 82472 99396
263395 82576 99441
263842 82542 99457
264180 82428 99411
264258 82242 99319
264325 82200 99223
264308 82108 99064
264151 82054 98947
263968 81818 98650
263624 81533 98395
263216 81212 98008
262638 81078 97641
262032 80903 97261
261318 80542 96878
260682 80355 96532
260044 80217 96243
259507 79875 96016
258903 79870 95858
258492 79997 95753
258129 79864 95643
257812 79875 95633
257611 79786 95558
257351 79726 95557
257203 79716 95471
257014 79777 95485
256900 79728 95414
256711 79641 95380
256630 79666 95353
256410 79490 95181
256198 79583 95104
256026 79516 95009
255830 79436 94910
255560 79403 94681
255262 79311 94599
254958 79120 94352
254561 78937 94132
254191 78929 93907
253693 78742 93665
253321 78609 93388
252826 78528 93157
252408 78215 92912
251928 78151 92667
251545 78085 92492
251118 77886 92239
250717 77813 92037
250388 77630 91773
249931 77448 91498
249509 77409 91263
249057 77313 91062
248672 77124 90797
248207 77073 90585
247859 76923 90418
247467 76699 90140
247083 76663 89931
246681 76496 89645
246237 76404 89437
245845 76226 89212
245512 76134 89011
245129 76019 88794
244759 75895 88614
244484 75939 88464
244120 75866 88254
243759 75758 88145
243449 75687 88012
243152 75615 87807
242764 75396 87615
242433 75413 87446
242130 75284 87220
241798 75166 87071
241493 75006 86791
241106 74845 86555
240722 74740 86238
240345 74600 85969
239988 74409 85657
239542 74086 85341
239143 73948 85066
238758 73884 84797
238370 73861 84770
238098 73942 84945
238010 74216 85770
238154 74809 87172
238858 75829 88803
240142 76479 90132
241863 77191 91442
244228 78111 92723
246849 78720 93923
249728 79374 95033
252512 79883 95971
255049 80361 96775
257303 80716 97353
259144 81189 97895
260558 81287 98149
261586 81346 98383
262378 81406 98468
262793 81363 98486
263047 81445 98403
263105 81330 98337
263065 81242 98192
262874 81085 98066
262707 81101 97950
262500 80799 97813
262272 80863 97597
261942 80644 97431
261601 80672 97250
261206 80424 96961
260770 80231 96744
260273 80000 96359
259645 79928 96064
259127 79847 95794
258506 79676 95527
258022 79539 95252
257455 79320 94995
256977 79208 94798
256461 79126 94613
256077 79013 94534
255678 78967 94366
255318 78966 94360
255068 78919 94320
254865 78902 94281
254670 78887 94190
254480 78849 94187
254336 78853 94117
254113 78819 94019
253920 78836 93991
253741 78691 93815
253481 78683 93705
253185 78487 93466
252868 78416 93297
252510 78360 93050
252127 78179 92840
251754 78099 92558
251332 77949 92362
250985 77834 92125
250544 77673 91834
250171 77563 91597
249659 77342 91306
249292 77196 91048
248816 77032 90727
248420 76926 90475
247977 76781 90168
247551 76540 89910
247115 76389 89594
246707 76268 89442
246296 76147 89149
245878 76061 88964
245495 75972 88647
245056 75751 88436
244685 75733 88230
244313 75372 87897
243849 75338 87615
243444 75291 87313
243012 75079 87078
242613 74858 86774
242205 74753 86594
241906 74577 86370
241478 74576 86117
241076 74600 85907
240745 74359 85648
240359 74135 85375
239945 73906 85125
239575 73867 84926
239222 73808 84634
238807 73736 84434
238490 73458 84133
238120 73376 83958
237740 73146 83668
237362 73000 83424
237006 72945 83140
236621 72880 82872
236293 72665 82559
235874 72361 82283
235520 72288 82113
235199 72338 82210
235036 72633 82906
235098 73292 84274
235604 74174 86242
236625 75136 87934
238137 76032 89411
240208 76829 90700
242547 77389 91896
245181 78078 93006
247820 78698 93934
250326 79049 94725
252507 79513 95320
254355 79790 95790
255778 79896 96093
256794 80082 96308
257605 80145 96376
258093 80190 96444
258392 80163 96424
258614 80256 96394
258707 80017 96249
258563 80085 96138
258484 80026 96004
258259 79721 95884
258019 79722 95754
257730 79696 95589
257455 79450 95322
256995 79336 94963
256525 79106 94617
255979 78728 94198
255366 78596 93797
254789 78506 93424
254160 78191 93118
253600 78155 92810
253029 77957 92569
252552 77762 92323
252032 77729 92156
251645 77743 92083
251297 77618 92018
251056 77751 92100
250856 77773 92044
250614 77671 92055
250429 77721 92047
250276 77786 92063
250120 77704 91949
249914 77725 91885
249785 77700 91749
249503 77443 91607
249257 77452 91464
249035 77330 91295
248761 77196 91087
248435 77138 90888
248140 77204 90772
247803 76957 90485
247443 76852 90291
247140 76769 90007
246695 76582 89736
246318 76388 89470
245928 76306 89208
245570 76174 88978
245138 75880 88648
244739 75880 88416
244342 75603 88087
243891 75493 87815
243464 75329 87437
243022 75024 87164
242580 74895 86820
242191 74771 86565
241846 74719 86302
241335 74514 85997
241021 74418 85740
240601 74206 85480
240206 73924 85197
239810 73875 84912
239425 73722 84637
238987 73580 84278
238590 73459 84082
238256 73297 83765
237771 72943 83534
237432 73048 83265
237013 72868 83008
236662 72792 82718
236281 72618 82471
235946 72457 82287
235594 72319 82042
235293 72246 81861
234954 72088 81627
234633 72149 81426
234282 71884 81144
233963 71776 80868
233577 71562 80594
233190 71492 80310
232896 71361 80084
232517 71223 79925
232316 71227 79992
232074 71271 80455
232082 71894 81735
232445 72811 83758
233294 73945 85878
234574 74766 87483
236379 75654 88871
238539 76271 90001
240858 76837 91076
243383 77442 92012
245698 77866 92739
247864 78315 93332
249582 78527 93685
250940 78586 93935
251913 78700 94094
252565 78663 94116
253001 78709 94044
253205 78687 93991
253324 78637 93859
253305 78529 93795
253257 78517 93634
253167 78434 93531
253061 78313 93421
252893 78297 93316
252765 78351 93232
252523 78205 93008
252296 78049 92779
251958 77938 92460
251549 77762 92145
251076 77525 91757
250628 77330 91486
250134 77137 91075
249603 76917 90849
249165 76921 90593
248699 76701 90389
248332 76689 90227
247918 76703 90146
247670 76569 90135
247371 76488 90132
247204 76624 90184
246995 76623 90089
246772 76607 90166
246639 76625 90110
246509 76548 90058
246364 76488 89982
246134 76500 89882
245964 76412 89733
245665 76297 89542
245396 76212 89312
245150 76048 89124
244828 75889 88910
244474 75876 88713
244182 75671 88489
243812 75489 88192
243456 75435 87958
243118 75316 87669
242694 75000 87447
242389 74983 87153
242010 74798 86877
241657 74752 86659
241239 74607 86409
240937 74334 86122
240532 74099 85807
240164 74044 85485
239737 73773 85137
239305 73616 84818
238930 73411 84519
238539 73215 84255
238174 73096 83972
237776 72941 83734
237425 72757 83435
237055 72689 83148
236661 72492 82872
236282 72130 82569
235975 72110 82327
235592 72006 82034
235312 71833 81784
234954 71726 81465
234548 71642 81128
234188 71340 80749
233781 71170 80455
233407 71102 80106
233053 70819 79840
232720 70843 79624
232378 70733 79492
232153 70805 79563
231914 70910 79936
231944 71422 80992
232307 72286 82742
233041 73668 85001
234177 74716 86935
235762 75672 88674
237858 76553 90152
240355 77651 91615
243194 78695 92985
245989 79407 94123
248757 80233 95110
251174 80708 95911
253307 81215 96575
255091 81740 97091
256617 82096 97512
257753 82190 97583
258354 82246 97554
258779 81993 97396
258869 81789 97203
258794 81589 96852
258496 81299 96498
258151 81002 96077
257565 80627 95636
257023 80250 95225
256313 79875 94691
255654 79672 94289
254975 79463 93768
254257 79132 93373
253610 79029 93059
252994 78849 92727
252450 78562 92419
251790 78470 92215
251356 78533 92084
250881 78362 91983
250536 78451 92006
250201 78353 91883
249954 78205 91903
249675 78193 91890
249551 78325 91960
249345 78150 91826
249118 78137 91792
248983 78073 91652
248743 77869 91504
248463 77853 91337
248224 77786 91188
247971 77734 91013
247629 77605 90874
247385 77524 90671
247048 77321 90404
246680 77277 90258
246386 77201 89985
246026 77023 89741
245658 76868 89485
245270 76795 89247
244934 76548 88985
244493 76410 88736
244203 76328 88530
243796 76235 88376
243483 76157 88219
243103 76005 88009
242805 75970 87907
242472 75826 87614
242154 75743 87381
241807 75542 87076
241368 75302 86810
241045 75001 86521
240590 74864 86205
240211 74741 85863
239761 74714 85567
239397 74479 85251
238958 74147 84895
238585 74036 84623
238164 73872 84371
237820 73716 84208
237443 73804 84036
237136 73813 84227
236983 74047 84803
237048 74576 86127
237552 75345 87680
238469 76089 89137
239938 76978 90469
241750 77602 91610
243967 78257 92770
246378 78906 93745
248928 79516 94679
251229 79932 95348
253257 80313 95984
254991 80691 96378
256256 80744 96658
257300 80883 96829
257995 80992 96947
258487 81106 96991
258791 81033 96973
258972 81089 96884
258978 80896 96734
258853 80651 96499
258583 80464 96284
258300 80476 96093
257934 80287 95853
257539 80169 95635
257132 79960 95317
256621 79730 94980
256092 79516 94561
255463 79358 94263
254971 79151 94045
254454 79162 93818
253994 79082 93655
253560 78921 93486
253196 78846 93401
252844 78829 93349
252599 78858 93363
252373 78894 93362
252187 78946 93409
252047 78867 93421
251968 78857 93463
251940 78952 93453
251812 79014 93456
251751 78960 93387
251590 78958 93313
251439 78806 93223
251282 78744 93033
251026 78653 92902
250732 78531 92636
250399 78439 92510
250089 78340 92284
249703 78216 92082
249414 78007 91809
248996 77910 91590
248592 77816 91318
248186 77636 91067
247790 77509 90838
247338 77319 90582
247000 77193 90374
246560 77057 90105
246160 77041 89940
245813 76908 89730
245463 76785 89621
245135 76752 89467
244841 76611 89306
244532 76596 89111
244159 76626 88938
243879 76398 88751
243464 76213 88488
243125 76166 88266
242780 75953 87997
242371 75786 87797
242030 75763 87493
241643 75660 87301
241292 75521 87186
240964 75673 87349
240850 75803 87969
240974 76317 89150
241604 77079 90468
242717 77693 91706
244396 78413 92969
246554 79101 94151
249121 79787 95345
251820 80504 96352
254412 81075 97260
256824 81401 97992
258835 81751 98535
260586 81954 98974
261827 82109 99268
262836 82370 99477
263424 82359 99487
263879 82348 99558
264028 82231 99474
264176 82262 99448
264198 82194 99401
264094 82330 99362
264084 82327 99380
264070 82392 99427
264125 82385 99425
264115 82420 99525
264188 82604 99561
264145 82788 99569
264079 82992 99637
263940 83075 99661
263820 83404 99754
263623 83394 99649
263371 83394 99411
262860 83065 98997
262285 82954 98711
261870 82810 98451
261357 82520 98200
260962 82284 97970
260606 82122 97858
260356 82121 97753
260103 82138 97679
259981 82046 97649
259753 81915 97584
259653 81833 97561
259544 81789 97458
259404 81722 97335
259248 81732 97223
259070 81706 97169
258812 81463 97010
258527 81468 96868
258266 81389 96704
257904 81163 96417
257501 81106 96162
257002 80834 95789
256542 80447 95514
256021 80339 95199
255475 80248 94973
255035 79975 94725
254569 80029 94523
254153 79921 94282
253717 79737 94188
253359 79746 94046
252980 79708 93920
252696 79672 93787
252282 79598 93570
251961 79597 93417
251627 79355 93237
251287 79305 93039
250940 79246 92843
250595 79216 92688
250208 79168 92551
249848 79117 92385
249494 78913 92092
249020 78721 91807
248644 78600 91653
248251 78612 91904
248238 78853 92687
248634 79519 93660
249579 79989 94856
251159 80563 96070
253310 81411 97373
255936 82165 98603
258723 82849 99769
261566 83485 100836
264202 84013 101710
266511 84373 102463
268339 84711 102984
269858 84884 103405
270917 85003 103617
271727 85144 103761
272173 85136 103795
272392 85031 103777
272472 85067 103722
272413 84839 103647
272246 84882 103546
272103 84910 103524
271912 84799 103408
271688 84697 103364
271518 84628 103282
271249 84599 103092
270948 84583 102922
270568 84456 102701
270109 84228 102429
269530 84000 102077
268923 83798 101838
268286 83692 101518
267650 83630 101289
267125 83579 101108
266607 83427 101019
266171 83472 100932
265913 83581 100986
265694 83682 101053
265571 83840 101247
265708 83999 101481
265806 84181 101627
266069 84452 101912
266413 84653 102135
266761 84856 102328
267094 85127 102452
267399 85216 102570
267673 85300 102608
267818 85435 102618
267966 85292 102551
267964 85179 102417
267801 85058 102146
267517 84782 101868
267125 84493 101589
266665 84313 101282
266127 84127 101065
265613 83980 100754
265085 83855 100592
264575 83642 100241
263931 83450 99956
263372 83297 99587
262694 82918 99251
262136 82816 98950
261457 82583 98585
260890 82483 98323
260287 82214 98023
259712 81940 97680
259111 81726 97319
258490 81511 97016
257926 81430 96678
257302 81123 96421
256762 80917 96073
256177 80767 95820
255638 80611 95522
255114 80505 95222
254585 80384 94937
254073 80226 94623
253620 80050 94454
253189 80001 94344
252817 80006 94463
252589 80205 94946
252741 80788 95934
253505 81333 97036
254797 81862 98243
256840 82570 99547
259400 83393 100825
262346 83997 102082
265283 84639 103179
268045 85164 104125
270487 85377 104864
272493 85796 105510
274087 86051 105881
275312 86083 106236
276153 86273 106367
276632 86375 106508
276976 86166 106473
276959 86107 106453
276963 86192 106418
276776 85956 106302
276632 86006 106198
276394 85919 106093
276178 85794 106003
275961 85587 105880
275640 85568 105789
275424 85442 105583
275013 85411 105426
274592 85282 105149
274089 85134 104904
273564 84890 104611
272937 84689 104282
272340 84597 104021
271653 84443 103709
271074 84384 103486
270528 84075 103226
269977 83928 103047
269464 83896 102904
269054 83820 102799
268709 83778 102727
268397 83808 102635
268239 83599 102593
268055 83510 102594
267939 83655 102561
267818 83653 102501
267708 83522 102398
267481 83451 102230
267262 83298 102128
266944 83133 101953
266616 83213 101774
266328 82981 101556
265879 82846 101367
265507 82827 101098
265046 82597 100913
264595 82391 100669
264127 82306 100402
263694 82242 100186
263214 81959 99849
262652 81803 99605
262182 81561 99290
261675 81394 99056
261127 81308 98733
260618 81171 98475
260077 80953 98135
259476 80725 97771
258950 80526 97439
258334 80251 97067
257759 80133 96760
257166 79947 96483
256634 79822 96227
256118 79691 95965
255623 79525 95803
255154 79353 95537
254695 79330 95361
254277 79287 95171
253806 79154 94949
253375 78876 94714
252900 78783 94486
252520 78616 94235
252062 78399 94021
251665 78402 93804
251229 78325 93537
250798 78120 93334
250392 78058 93061
249970 77934 92877
249567 77796 92710
249208 77906 92935
249106 78204 93595
249239 78653 94743
250055 79358 96087
251419 80101 97391
253483 80796 98752
256131 81748 100097
259072 82445 101302
262051 82979 102412
264913 83590 103466
267432 83925 104179
269416 84287 104797
271108 84546 105188
272260 84639 105494
273120 84713 105576
273576 84680 105599
273793 84624 105592
273825 84569 105513
273847 84568 105458
273777 84529 105380
273664 84532 105374
273556 84487 105304
273469 84463 105312
273356 84437 105245
273169 84364 105125
272934 84197 104934
272583 84176 104689
272149 83799 104307
271491 83521 103926
270858 83438 103596
270169 83213 103244
269545 83112 102990
268891 82961 102719
268383 82772 102639
267930 82777 102462
267555 82811 102436
267314 82771 102338
267033 82704 102317
266923 82753 102275
266825 82622 102307
266740 82640 102282
266619 82603 102226
266510 82632 102189
266336 82578 102096
266133 82501 101993
265907 82307 101848
265636 82203 101671
265343 82192 101440
264984 82040 101306
264637 81922 101005
264163 81669 100811
263779 81571 100561
263351 81328 100334
262911 81380 100106
262454 81237 99887
262037 81064 99611
261536 80889 99310
261059 80743 99121
260597 80490 98830
260118 80432 98648
259654 80359 98391
259216 80282 98215
258779 80131 97978
258298 79878 97738
257884 79801 97514
257363 79689 97271
256944 79571 97057
256515 79410 96807
256062 79300 96606
255643 79150 96356
255247 79092 96180
254813 79015 95984
254420 78911 95829
254108 78851 95660
253723 78712 95530
253393 78677 95323
252989 78600 95143
252619 78448 94865
252170 78320 94626
251769 78223 94422
251358 78091 94223
251000 78042 94090
250667 77856 93904
250302 77936 94002
250138 78242 94356
250180 78514 95178
250714 79059 96219
251685 79656 97366
253386 80260 98546
255603 81025 99821
258292 81875 101107
261220 82426 102323
264198 83132 103393
266871 83663 104315
269287 84006 105062
271220 84278 105523
272687 84504 105856
273721 84498 105939
274291 84467 106017
274571 84431 105928
274536 84132 105797
274395 84096 105579
274011 83928 105350
273703 83784 105174
273273 83633 104986
272912 83494 104858
272531 83360 104601
272022 83205 104294
271497 83046 104017
270847 82781 103655
270117 82534 103205
269322 82108 102883
268606 81977 102456
267857 81848 102160
267163 81717 101895
266490 81501 101619
265927 81162 101436
265358 81146 101245
264942 80982 101154
264667 81060 101117
264386 81053 101071
264225 81057 101072
264080 80951 101080
263982 80986 101095
263873 81030 101069
263809 80982 101018
263592 80982 100875
263376 80829 100730
263083 80604 100506
262775 80555 100417
262467 80495 100146
262103 80385 100028
261772 80448 99859
261445 80370 99740
261085 80173 99543
260721 80038 99354
260389 80069 99220
260027 79893 99011
259742 79900 98913
259354 79948 98724
258998 79609 98594
258665 79691 98370
258337 79508 98171
258017 79521 98018
257557 79465 97832
257277 79392 97699
256913 79237 97538
256570 79163 97351
256236 79100 97204
255887 78879 96991
255526 78928 96793
255186 78937 96603
254834 78612 96368
254476 78589 96226
254119 78525 95981
253718 78334 95796
253323 78297 95549
252886 78172 95315
252540 77919 95108
252105 77803 94921
251781 77820 94692
251348 77613 94510
250980 77563 94372
250643 77483 94174
250257 77291 93971
249928 77111 93738
249564 77026 93557
249187 76937 93270
248768 76897 93085
248460 76860 92893
248069 76692 92811
247819 76676 92710
247521 76749 92764
247329 76917 93099
247357 77204 93952
247917 77899 95129
249112 78447 96330
250893 79079 97691
253445 79954 99025
256471 80771 100451
259814 81598 101730
263143 82255 102974
266314 82936 104061
269094 83322 104930
271522 83771 105629
273402 84073 106142
274897 84298 106542
275990 84500 106773
276733 84592 106992
277175 84576 107035
277474 84617 107089
277662 84607 107100
277737 84659 107176
277913 84799 107239
278058 84809 107368
278217 84790 107421
278314 84829 107488
278436 84860 107479
278339 84816 107372
278166 84742 107207
277815 84616 106978
277384 84399 106743
276853 84217 106404
276275 84098 106172
275677 83997 105863
275060 83838 105615
274513 83639 105413
273995 83611 105269
273598 83629 105178
273257 83539 105082
272997 83551 105062
272806 83481 104965
272677 83445 104991
272570 83319 104981
272456 83347 104966
272446 83357 104959
272342 83383 104930
272276 83383 104834
272152 83299 104797
271986 83261 104677
271773 83206 104584
271595 83095 104424
271211 83040 104161
270920 82954 104032
270539 82730 103774
270102 82522 103570
269676 82501 103281
269244 82305 103044
268734 82214 102814
268288 82186 102611
267908 81966 102444
267452 81842 102253
267066 81901 102076
266652 81717 101855
266225 81707 101665
265778 81420 101445
265378 81189 101193
264899 81094 100897
264386 80985 100678
263967 80830 100416
263448 80701 100231
263018 80649 100035
262580 80364 99796
262176 80333 99646
261687 80329 99392
261315 80162 99238
260898 80020 98971
260466 79947 98762
260077 79641 98574
259608 79529 98340
259199 79448 98093
258718 79310 97849
258315 79171 97634
257841 79026 97431
257452 78895 97235
257004 78831 97037
256600 78788 96871
256225 78633 96593
255803 78516 96404
255438 78483 96164
255013 78266 95961
254631 78040 95688
254170 78042 95495
253792 77923 95292
253377 77820 95250
253090 77917 95410
253018 78214 96063
253343 78616 97017
254321 79177 98165
255999 79931 99449
258348 80763 100760
261230 81499 102186
264520 82219 103488
267835 82905 104844
271014 83679 105886
273785 84220 106851
276207 84620 107511
277996 84877 108042
279391 85086 108460
280287 85094 108642
280899 85280 108808
281215 85284 108827
281315 85246 108835
281316 85253 108770
281215 85276 108758
281117 85094 108740
281030 85163 108736
280937 85160 108683
280866 85090 108701
280821 85110 108652
280601 85154 108525
280293 84899 108325
279858 84795 108065
279286 84680 107788
278595 84319 107415
277911 84276 107087
277230 83944 106685
276504 83714 106387
275835 83618 106096
275188 83461 105919
274747 83313 105751
274274 83348 105682
274026 83251 105642
273797 83138 105648
273700 83265 105586
273551 83228 105530
273443 83148 105521
273306 83182 105453
273263 83044 105458
273138 82998 105352
272918 83011 105299
272850 82905 105166
272556 82864 105002
272299 82699 104837
271912 82528 104617
271603 82382 104447
271134 82240 104191
270733 82187 103917
270235 82015 103622
269758 81835 103459
269296 81651 103157
268750 81530 102965
268301 81485 102696
267804 81357 102502
267332 81298 102274
266842 81015 102098
266487 81009 101916
266055 80765 101642
265607 80714 101463
265171 80594 101174
264732 80551 101016
264303 80289 100767
263908 80235 100572
263519 80173 100372
263065 80012 100173
262731 80001 100030
262332 79854 99799
261897 79698 99565
261452 79494 99288
261076 79383 99100
260631 79243 98830
260185 79192 98651
259757 78986 98399
259316 78881 98245
258914 78756 97978
258503 78652 97841
258152 78466 97635
257745 78438 97449
257438 78316 97258
256994 78215 97085
256654 78208 96927
256288 78007 96706
255935 77920 96538
255545 77776 96291
255201 77831 96110
254801 77640 95875
254450 77456 95715
254113 77325 95431
253672 77120 95203
253356 77165 94954
252908 76924 94650
252472 76741 94372
252012 76600 94194
251651 76493 94025
251282 76513 94071
251081 76762 94644
251236 77224 95611
251952 77820 96871
253361 78543 98157
255455 79258 99570
258331 80150 100988
261547 81065 102469
265045 81783 103777
268417 82612 105019
271591 83146 106048
274209 83447 106780
276347 83894 107385
277884 84107 107739
278936 84166 107964
279600 84269 108025
279866 84243 108049
280004 84083 107922
279823 84111 107850
279691 84078 107789
279380 83922 107651
279181 83900 107603
278896 83853 107512
278714 83631 107401
278431 83697 107283
278143 83686 107132
277761 83413 106831
277272 83285 106590
276716 83156 106242
276063 82932 105947
275505 82795 105662
274833 82684 105390
274279 82480 105177
273699 82378 105003
273257 82365 104896
272852 82153 104792
272509 82219 104695
272248 82169 104600
272032 82029 104572
271919 82091 104559
271787 82045 104556
271722 82054 104544
271620 82059 104537
271564 82071 104392
271405 81960 104339
271298 81875 104250
271075 81756 104081
270808 81687 103974
270516 81609 103770
270166 81533 103626
269779 81408 103377
269406 81201 103229
269037 81068 102941
268582 81024 102754
268234 80818 102521
267710 80739 102308
267306 80718 102083
266849 80295 101832
266409 80312 101642
265978 80181 101451
265518 80070 101221
265050 79937 100986
264607 79882 100759
264180 79607 100480
263669 79588 100300
263334 79487 100089
262892 79384 99952
262513 79327 99772
262114 79303 99648
261792 79190 99436
261377 79024 99221
261010 78906 99013
260555 78769 98745
260103 78654 98546
259690 78504 98314
259300 78206 98084
258850 78137 97810
258380 78095 97635
258013 77907 97365
257549 77836 97166
257158 77722 96920
256713 77485 96771
256370 77382 96578
255954 77304 96345
255572 77182 96156
255187 77098 95963
254817 77149 95797
254510 76873 95530
254073 76630 95349
253725 76599 95074
253289 76322 94798
252873 76185 94535
252434 76128 94273
252032 75945 94028
251596 75754 93803
251219 75784 93672
250882 75707 93566
250552 75761 93804
250475 76157 94491
250775 76612 95592
251671 77212 96784
253154 78021 98061
255370 78626 99378
258075 79410 100792
261258 80299 102170
264458 80938 103358
267551 81472 104432
270319 82047 105280
272614 82412 105940
274408 82707 106356
275669 82913 106665
276543 82915 106765
276987 82857 106789
277162 82778 106651
277031 82746 106489
276829 82675 106321
276516 82638 106176
276206 82378 106041
275811 82257 105867
275491 82207 105774
275183 82151 105544
274763 82143 105388
274315 81920 105092
273797 81797 104807
273216 81493 104468
272575 81332 104213
271982 81262 103886
271336 81220 103668
270838 81019 103434
270252 80828 103195
269789 80726 103067
269359 80634 102971
269081 80674 102934
268844 80542 102875
268713 80566 102898
268548 80529 102841
268468 80555 102892
268436 80535 102888
268360 80574 102854
268302 80620 102803
268188 80516 102751
268087 80505 102659
267880 80503 102548
267682 80300 102416
267466 80355 102229
267090 80130 102060
266812 80086 101796
266422 79983 101658
266064 79836 101420
265633 79757 101265
265345 79729 101078
264891 79615 100885
264548 79501 100706
264166 79313 100503
263780 79280 100378
263398 79185 100141
263017 79144 100001
262629 78990 99753
262223 78919 99578
261878 78875 99345
261465 78651 99179
261134 78579 98966
260774 78438 98782
260400 78376 98561
259992 78319 98339
259644 78167 98145
259204 77980 97858
258774 77894 97622
258353 77721 97314
257841 77572 97054
257363 77433 96749
256883 77215 96491
256422 77074 96169
255893 76912 95952
255518 76827 95690
255098 76635 95549
254708 76763 95416
254341 76610 95277
254005 76520 95111
253653 76481 94986
253406 76385 94839
253074 76278 94654
252703 76289 94500
252375 76020 94249
252038 75852 94100
251706 75890 93906
251350 75801 93740
251005 75768 93608
250695 75858 93658
250483 75870 93819
250423 76088 94433
250685 76733 95512
251559 77422 96734
253056 78178 98158
255354 79100 99563
258279 79942 101103
261630 80751 102529
265146 81715 103932
268717 82418 105133
271847 83020 106111
274604 83592 106912
276755 83776 107436
278362 83966 107856
279515 84223 108062
280137 84235 108129
280459 84236 108055
280446 84228 107918
280295 83968 107702
279911 83797 107491
279533 83747 107287
279068 83615 107128
278727 83582 106978
278290 83528 106843
277899 83392 106659
277460 83171 106422
276943 83146 106142
276384 82827 105733
275700 82627 105395
275012 82460 105059
274390 82255 104862
273812 82081 104597
273280 82019 104477
272890 82007 104321
272493 81932 104221
272250 81875 104243
272074 81822 104217
272006 81764 104270
271928 81933 104279
271983 82081 104358
271985 81982 104351
271897 81937 104314
271834 81871 104212
271645 81602 104079
271466 81720 103851
271152 81680 103723
270848 81483 103513
270471 81354 103346
270150 81156 103102
269707 80876 102840
269243 80933 102656
268828 80812 102413
268388 80668 102236
267927 80529 101979
267485 80496 101796
267126 80216 101611
266650 80258 101432
266324 80209 101231
265871 80013 101057
265482 80001 100867
265084 79864 100702
264702 79714 100492
264214 79486 100239
263820 79511 100033
263361 79303 99750
262992 79322 99631
262566 79187 99443
262198 79026 99291
261846 79043 99064
261423 78906 98890
261064 78770 98645
260631 78611 98389
260248 78449 98189
259806 78304 97903
259398 78208 97768
258973 78213 97551
258572 78035 97415
258220 78000 97207
257868 77912 97077
257529 77738 96869
257108 77666 96734
256830 77696 96525
256455 77585 96347
256070 77501 96147
255743 77334 96035
255483 77437 95948
255214 77275 95967
255036 77563 96324
255148 77921 97060
255790 78363 98119
257089 79097 99245
259004 79650 100591
261587 80447 101858
264483 81230 103177
267621 82042 104395
270559 82582 105460
273344 83065 106375
275686 83424 107047
277555 83717 107573
278871 83868 107808
279656 83920 107889
280010 83859 107814
279966 83732 107690
279704 83570 107378
279114 83410 107029
278405 83208 106657
277606 82935 106239
276798 82653 105918
276040 82348 105538
275281 82220 105238
274578 82122 104894
273870 82034 104585
273140 81810 104226
272389 81524 103855
271674 81339 103489
270924 81136 103197
270230 81085 102888
269578 80812 102584
268962 80771 102420
268388 80571 102232
267969 80448 102190
267568 80396 102057
267246 80442 102091
267053 80373 102049
266926 80388 102009
266838 80264 101987
266710 80299 102030
266691 80309 101950
266510 80357 101890
266401 80223 101751
266168 80146 101577
265916 80037 101443
265563 79790 101189
265225 79769 100973
264798 79662 100755
264375 79587 100596
264018 79542 100350
263554 79398 100193
263177 79219 99978
262788 79177 99779
262392 79116 99619
262061 79047 99484
261748 78952 99261
261334 78874 99094
260998 78769 98985
260640 78594 98713
260280 78614 98549
259883 78503 98375
259538 78394 98184
259194 78238 97996
258819 78216 97855
258473 78076 97639
258033 78001 97458
257679 77906 97275
257289 77788 97066
256973 77724 96928
256570 77619 96689
256228 77422 96470
255803 77368 96242
255440 77340 96029
255082 77198 95827
254607 77010 95590
254261 76946 95394
253890 76750 95136
253451 76642 94886
252984 76635 94669
252689 76459 94500
252275 76334 94345
251957 76362 94503
251830 76531 95055
252010 76983 96047
252732 77689 97194
254134 78277 98470
256206 78998 99750
258803 79791 101086
261855 80515 102351
265004 81307 103524
268018 81984 104559
270749 82340 105356
272962 82797 105969
274572 82838 106291
275760 82957 106541
276443 82979 106536
276725 83061 106476
276712 82864 106322
276487 82850 106082
276054 82638 105817
275546 82460 105521
274944 82357 105203
274301 82231 104879
273702 81988 104578
273058 81722 104266
272411 81548 103950
271766 81310 103547
271035 81183 103204
270323 80843 102828
269573 80753 102464
268877 80427 102191
268193 80327 101911
267691 80111 101724
267194 80046 101687
266894 80164 101659
266643 80292 101739
266513 80181 101809
266483 80319 101885
266532 80432 102018
266657 80378 102035
266672 80536 102111
266821 80505 102079
266789 80392 102071
266794 80479 102030
266586 80410 101908
266445 80314 101763
266115 80210 101582
265831 80145 101321
265422 79873 101099
265069 79827 100889
264607 79637 100583
264142 79509 100354
263616 79385 100046
263106 79227 99803
262586 79062 99486
261998 78883 99262
261557 78747 99008
261032 78615 98750
260590 78597 98540
260136 78498 98341
259739 78310 98141
259310 78304 98020
258936 78241 97909
258622 78167 97739
258252 78093 97534
257854 78066 97335
257399 77762 97092
256985 77659 96793
256503 77550 96524
256072 77316 96244
255521 77136 95940
255081 77039 95633
254591 76730 95313
254097 76632 95106
253592 76545 94757
253093 76423 94474
252623 76255 94186
252133 76116 93950
251671 76026 93718
251211 75962 93666
250900 76034 93929
250789 76283 94719
251104 76826 95841
251955 77531 97130
253424 78158 98369
255443 78762 99541
257929 79507 100760
260699 80144 101820
263459 80672 102855
266089 81154 103629
268256 81350 104198
269936 81547 104574
271153 81739 104763
271941 81814 104809
272309 81748 104755
272442 81639 104592
272274 81544 104315
271922 81242 104063
271469 81106 103714
270971 81004 103422
270345 80745 103058
269776 80662 102815
269168 80458 102469
268532 80230 102183
267947 80002 101756
267211 79806 101352
266459 79518 100960
265706 79453 100588
264974 79142 100248
264225 78883 99903
263625 78917 99744
263074 78698 99530
262586 78669 99415
262146 78661 99353
261805 78573 99351
261621 78508 99367
261444 78638 99417
261359 78601 99433
261224 78679 99453
261213 78717 99462
261088 78600 99398
260980 78556 99297
260858 78485 99139
260654 78412 99006
260434 78256 98817
260158 78210 98640
259803 78014 98419
259421 77925 98210
259107 77844 98026
258689 77685 97808
258315 77612 97590
257917 77555 97343
257529 77359 97097
257077 77204 96841
256678 77101 96659
256268 77009 96424
255871 76894 96222
255467 76782 96014
255031 76627 95804
254653 76485 95575
254193 76322 95346
253844 76246 95165
253387 76119 94943
253073 76102 94801
252661 75940 94552
252261 75772 94408
251940 75655 94190
251570 75581 94024
251225 75577 93832
250885 75538 93733
250604 75435 93479
250168 75260 93272
249843 75264 93010
249417 75049 92740
248991 74884 92431
248597 74732 92202
248221 74584 92041
247840 74427 92031
247581 74788 92550
247678 75182 93628
248201 75942 94997
249356 76692 96364
251135 77366 97688
253487 78088 98995
256275 78840 100239
259362 79565 101447
262305 80254 102456
265056 80789 103256
267345 80989 103797
269150 81250 104205
270424 81418 104410
271263 81495 104484
271737 81488 104418
271853 81375 104322
271766 81177 104052
271448 81034 103861
271121 80926 103529
270639 80752 103270
270253 80821 103039
269662 80516 102714
269137 80313 102414
268458 80065 101991
267803 79950 101595
267113 79642 101168
266294 79440 100733
265539 79208 100354
264782 79026 100039
264145 78828 99729
263495 78639 99543
263026 78723 99442
262532 78510 99356
262232 78573 99356
261977 78484 99390
261832 78534 99454
261755 78556 99473
261677 78515 99480
261577 78526 99405
261466 78507 99470
261399 78444 99339
261228 78393 99250
261054 78395 99140
260839 78376 99006
260593 78170 98826
260283 78151 98689
259968 77935 98455
259595 77745 98150
259138 77722 97949
258759 77578 97610
258270 77306 97416
257789 77261 97119
257296 77068 96938
256936 76882 96720
256457 76830 96469
256088 76837 96312
255721 76647 96112
255399 76628 95944
254957 76512 95743
254603 76319 95588
254213 76285 95379
253866 76292 95245
253542 76131 94994
253126 76121 94890
252879 76053 94652
252453 75695 94468
252060 75717 94195
251633 75610 93945
251267 75377 93627
250807 75217 93330
250403 75113 93133
249993 74792 92894
249597 74962 92911
249337 75067 93212
249307 75426 94102
249731 76140 95389
250730 76769 96649
252402 77267 97883
254550 78040 99236
257363 78970 100540
260342 79582 101750
263490 80224 102878
266412 80772 103764
268969 81140 104492
270992 81559 105037
272573 81831 105360
273633 81931 105478
274287 81888 105561
274601 81762 105404
274579 81584 105202
274362 81557 105029
273985 81430 104737
273554 81243 104478
273011 81036 104155
272506 80868 103953
272019 80737 103721
271466 80666 103458
270899 80417 103075
270232 80179 102724
269481 79996 102276
268744 79807 101945
268140 79557 101634
267394 79453 101394
266819 79343 101192
266273 79326 101004
265801 79122 100920
265484 79126 100835
265197 79075 100839
264953 79068 100849
264900 79189 100915
264781 79152 100903
264696 79079 100916
264703 79211 100956
264637 79211 100932
264565 79061 100859
264403 79190 100715
264284 79068 100616
264005 78920 100387
263698 78849 100210
263321 78671 99923
262863 78478 99713
262516 78455 99388
262005 78245 99104
261545 78063 98841
261051 77893 98592
260544 77716 98287
260033 77530 98051
259590 77559 97774
259053 77328 97459
258584 77170 97245
258100 77043 96988
257630 76904 96765
257172 76670 96471
256667 76674 96252
256271 76543 95975
255774 76347 95796
255329 76240 95498
254830 76050 95280
254437 75936 94987
253943 75949 94677
253519 75699 94350
253015 75499 94032
252527 75255 93701
252014 75049 93368
251530 75025 93298
251134 75073 93518
250985 75538 94467
251342 76254 95878
252252 76975 97342
254004 77734 98737
256349 78470 100148
259352 79353 101544
262684 80066 102866
266018 80700 104072
269076 81266 105055
271745 81707 105853
273804 82132 106371
275331 82277 106764
276508 82478 106927
277148 82575 107039
277528 82380 107000
277614 82304 106910
277579 82313 106726
277307 82183 106624
277109 82253 106519
276865 81992 106408
276643 81998 106372
276527 81883 106332
276316 81942 106267
276106 81805 106112
275790 81697 105935
275382 81577 105594
274745 81234 105276
274190 81043 104830
273373 80784 104415
272658 80618 104065
271850 80472 103697
271129 80166 103440
270485 80019 103167
269903 79892 103030
269477 79852 102932
269089 79890 102904
268841 79940 102937
268624 79954 102977
268528 79912 102923
268447 79886 102998
268383 80007 102984
268304 80019 103002
268301 80030 102927
268112 79835 102750
267913 79762 102616
267681 79473 102419
267340 79440 102203
266968 79357 101965
266557 79249 101775
266064 79044 101480
265612 78910 101246
265187 78733 101006
264696 78612 100760
264236 78590 100548
263756 78449 100291
263264 78347 100081
262803 78237 99852
262383 78014 99641
261908 77918 99381
261422 77935 99185
260978 77708 98846
260427 77507 98608
259999 77356 98290
259433 77048 97897
258884 76950 97547
258317 76777 97263
257838 76606 96946
257266 76351 96623
256783 76312 96482
256332 76088 96194
255881 76038 96127
255441 76173 96231
255187 76306 96812
255345 76781 97795
255936 77363 98953
257279 77927 100139
259176 78716 101444
261691 79484 102745
264521 80195 103966
267552 80848 105098
270307 81412 106055
272762 81857 106821
274741 82179 107276
276115 82450 107604
277090 82462 107724
277624 82447 107764
277902 82359 107628
277818 82167 107472
277585 82212 107275
277190 82012 107077
276869 81891 106860
276448 81668 106612
276015 81554 106478
275633 81455 106318
275204 81468 106112
274750 81281 105805
274198 81079 105461
273576 80779 105019
272818 80604 104648
272103 80405 104285
271274 80036 103843
270522 80025 103567
269852 79839 103284
269236 79591 103093
268707 79552 103008
268315 79561 102986
268057 79438 102995
267813 79500 103063
267769 79707 103051
267709 79588 103178
267718 79704 103219
267693 79749 103187
267713 79672 103197
267582 79622 103080
267519 79682 102991
267336 79455 102807
267080 79460 102643
266750 79369 102399
266344 79202 102141
265958 79017 101909
265473 78887 101643
265018 78740 101373
264541 78518 101122
264084 78452 100844
263560 78243 100550
263071 78225 100343
262562 78075 100059
262110 77849 99803
261607 77702 99566
261127 77671 99328
260698 77524 99148
260215 77392 98927
259842 77346 98710
259386 77200 98505
258979 76991 98254
258509 76888 97954
258034 76683 97600
257472 76463 97279
257000 76323 96972
256455 76059 96596
255933 75890 96325
255419 75724 95947
254913 75699 95770
254450 75587 95663
254048 75707 95884
253960 75910 96573
254189 76391 97722
255105 77239 99056
256653 77842 100357
258961 78690 101805
261838 79618 103212
265158 80343 104612
268462 80967 105839
271647 81773 106896
274388 82282 107705
276478 82591 108293
278083 82863 108619
279101 82895 108810
279754 82835 108827
280004 82928 108821
280054 82823 108707
279903 82723 108582
279722 82653 108432
279399 82483 108226
279094 82373 108106
278796 82341 108020
278548 82316 107988
278361 82364 107808
278063 82117 107657
277744 82105 107422
277209 81786 107066
276650 81656 106706
275947 81370 106258
275239 81256 105938
274543 80908 105597
273866 80781 105322
273247 80670 105122
272764 80606 105058
272368 80691 104942
272110 80856 105016
271996 80760 105094
271946 80857 105189
272027 80980 105323
272140 81118 105453
272320 81213 105580
272452 81378 105676
272690 81392 105737
272826 81380 105726
272806 81427 105642
272779 81291 105530
272629 81255 105413
272400 81158 105140
272019 80948 104927
271703 80764 104658
271235 80688 104455
270832 80522 104240
270383 80473 103981
269954 80437 103742
269481 80159 103469
269035 80022 103262
268499 79843 102937
268027 79758 102775
267605 79629 102499
267107 79490 102303
266738 79481 102106
266284 79334 101967
265918 79215 101762
265484 79121 101564
265113 79030 101299
264602 78814 101028
264124 78743 100769
263670 78526 100467
263154 78384 100194
262679 78182 99844
262117 77997 99607
261614 77860 99330
261095 77805 99239
260734 77709 99218
260437 77766 99632
260617 78245 100432
261320 78787 101462
262789 79456 102713
264931 80345 104083
267832 81039 105575
271141 81912 107024
274498 82790 108400
277814 83483 109538
280591 84144 110550
282869 84532 111238
284544 84728 111703
285769 84871 111986
286393 85060 112162
286900 85020 112214
286983 85034 112153
286933 85130 112157
286881 84852 112098
286736 84933 112049
286572 84920 112013
286491 84938 112025
286383 84895 112010
286253 84936 111965
286202 84801 111924
285961 84732 111830
285706 84807 111632
285309 84535 111347
284697 84414 110991
283978 84250 110570
283264 83861 110214
282495 83675 109764
281721 83557 109431
281045 83355 109101
280353 83233 108906
279889 83246 108704
279474 83118 108658
279229 82964 108615
279052 83060 108622
279003 83099 108651
278936 83068 108599
278889 83195 108615
278834 83007 108547
278743 82928 108469
278620 82971 108362
278427 82974 108254
278259 82831 108051
277932 82754 107916
277649 82612 107717
277264 82361 107464
276820 82423 107254
276374 82233 106923
275835 82013 106663
275206 81867 106292
274657 81586 106010
274061 81318 105639
273405 81204 105336
272833 80975 104980
272163 80809 104688
271603 80626 104416
271017 80537 104180
270446 80319 103903
269837 80217 103609
269323 80135 103362
268754 79901 103127
268235 79758 102860
267729 79676 102634
267255 79501 102450
266785 79402 102191
266245 79288 101992
265823 79131 101686
265301 79039 101481
264893 78894 101241
264374 78617 100993
263932 78569 100686
263377 78426 100375
262890 78309 100055
262327 77983 99715
261791 77845 99423
261253 77637 99062
260682 77449 98926
260283 77438 98934
259988 77603 99424
260102 78075 100345
260875 78790 101577
262518 79482 102979
264913 80348 104498
268144 81366 106132
271707 82288 107700
275363 83197 109182
278775 83902 110436
281726 84496 111394
284025 84781 112091
285712 85200 112590
286836 85336 112840
287483 85452 113024
287908 85428 113072
287977 85371 113080
288014 85435 113090
287923 85485 113079
287921 85406 113126
287872 85420 113134
287882 85465 113263
287883 85440 113241
287886 85472 113325
287927 85501 113245
287758 85483 113159
287612 85322 113000
287153 85102 112708
286588 84911 112322
285794 84647 111848
285036 84373 111371
284133 84124 110891
283196 83917 110496
282376 83513 110099
281644 83370 109760
280938 83256 109505
280376 83145 109340
279958 83138 109211
279586 83030 109124
279417 82968 109131
279249 83015 109172
279176 83021 109172
279067 82971 109125
279015 83005 109101
278849 82866 108969
278677 82710 108831
278427 82705 108581
278082 82564 108443
277775 82461 108202
277367 82285 107975
276944 82281 107789
276422 81976 107530
275978 81962 107237
275445 81846 107001
274986 81730 106727
274486 81534 106448
273959 81296 106155
273391 81043 105813
272802 80875 105463
272150 80717 105143
271580 80503 104879
271011 80438 104568
270360 80234 104319
269850 80053 104061
269341 79957 103804
268850 79853 103596
268324 79744 103310
267949 79657 103149
267453 79546 102904
267026 79379 102716
266578 79175 102412
266094 79090 102172
265656 78963 101887
265185 78725 101708
264749 78684 101452
264266 78501 101238
263849 78434 101040
263348 78243 100742
262938 78256 100541
262437 77998 100266
262011 77865 100039
261587 77768 99833
261156 77618 99595
260716 77419 99343
260233 77484 99109
259819 77254 98782
259285 76978 98506
258844 76942 98248
258340 76679 98001
257897 76608 97698
257371 76530 97389
256916 76307 97099
256419 76086 96821
255948 76005 96512
255469 75721 96226
254933 75631 95955
254488 75582 95709
254001 75314 95411
253576 75163 95145
253053 74910 94835
252636 74794 94516
252094 74595 94155
251598 74517 93742
251066 74328 93384
250526 73942 93069
250034 73824 92922
249658 73966 93239
249546 74563 94515
249988 75578 96498
251286 76783 98385
253409 77654 100189
256431 78693 101920
260171 79744 103648
264307 80670 105242
268323 81660 106617
271959 82374 107798
274989 82845 108597
277267 83205 109255
279002 83439 109594
280111 83500 109814
280789 83592 109859
281129 83485 109873
281230 83423 109777
281127 83459 109737
281076 83361 109655
280883 83264 109566
280705 83351 109493
280548 83256 109446
280455 83199 109421
280366 83072 109363
280279 83102 109318
280124 82884 109111
279840 82895 108936
279455 82804 108616
278858 82471 108212
278153 82190 107825
277433 81974 107403
276651 81860 107006
275861 81586 106594
275189 81249 106308
274484 81060 106017
273834 81007 105891
273433 80985 105761
273076 80947 105711
272780 80993 105690
272571 80930 105690
272456 80925 105714
272303 80813 105674
272249 80920 105697
272154 80933 105620
272024 80854 105549
271866 80813 105433
271700 80647 105305
271411 80529 105076
271057 80491 104922
270740 80436 104657
270250 80247 104414
269829 80106 104127
269266 79910 103847
268750 79675 103539
268167 79523 103183
267671 79448 102880
267099 79243 102555
266547 79078 102245
265944 78845 101887
265345 78649 101620
264778 78485 101228
264172 78323 100918
263603 78123 100561
263024 77955 100305
262497 77830 100023
261884 77565 99691
261361 77417 99394
260821 77237 99070
260237 77112 98809
259714 76978 98525
259197 76718 98252
258625 76596 97957
258094 76526 97732
257646 76361 97424
257085 76232 97201
256678 76155 96969
256162 75936 96710
255710 75786 96492
255267 75691 96230
254811 75567 95949
254348 75432 95698
253913 75257 95511
253486 75106 95197
252983 75043 95020
252604 75002 94821
252124 74925 94631
251738 74813 94423
251311 74749 94274
250992 74596 94096
250578 74412 93894
250260 74449 93747
249834 74383 93486
249456 74244 93297
249056 73983 92985
248674 73796 92691
248257 73643 92399
247833 73565 92213
247501 73361 91898
246981 73308 91645
246613 73193 91365
246183 72992 91140
245829 72938 91058
245474 72921 91229
245381 73352 92108
245565 74172 93713
246336 75187 95653
247740 76105 97299
249778 76933 98908
252520 77910 100346
255666 78628 101736
259031 79506 102958
262318 80267 104050
265292 80655 104900
267709 80990 105506
269589 81348 105921
270941 81455 106120
271847 81569 106223
272373 81526 106130
272571 81392 106035
272594 81225 105830
272398 81307 105673
272225 81085 105477
271956 81123 105323
271677 80962 105226
271479 80843 105131
271188 80786 104984
270877 80745 104770
270573 80652 104592
270117 80487 104202
269569 80234 103880
269002 79993 103445
268334 79759 103114
267655 79646 102816
267108 79532 102597
266573 79392 102412
266073 79326 102318
265745 79404 102248
265377 79297 102230
265220 79363 102219
265096 79376 102218
265066 79297 102264
264979 79385 102278
265018 79499 102366
265079 79304 102309
265078 79359 102336
265117 79512 102313
265051 79288 102262
264985 79394 102084
264783 79301 101954
264571 79069 101766
264192 78989 101502
263887 78906 101290
263471 78704 100977
263041 78651 100779
262608 78467 100533
262208 78262 100317
261704 78254 99993
261224 78097 99770
260761 77841 99422
260184 77759 99110
259745 77620 98860
259176 77278 98530
258676 77176 98266
258171 77046 97947
257684 76854 97663
257225 76750 97352
256757 76590 97131
256274 76309 96761
255681 76273 96485
255189 76099 96155
254677 75830 95875
254180 75727 95600
253704 75446 95340
253268 75373 95139
252815 75243 94894
252437 75296 94754
252030 75061 94518
251602 74977 94298
251160 74795 94071
250785 74637 93921
250383 74637 93721
250001 74597 93523
249697 74498 93346
249262 74332 93154
248916 74158 92884
248457 74029 92550
248061 73778 92295
247630 73775 92019
247267 73580 91836
246893 73355 91764
246675 73711 92050
246555 74019 92855
246761 74791 94354
247612 75817 95981
248995 76583 97547
251065 77410 98991
253722 78326 100458
256837 79142 101801
260127 79835 103057
263379 80652 104174
266353 81269 105075
268819 81678 105758
270826 81932 106252
272337 82128 106561
273377 82298 106663
273983 82350 106681
274382 82289 106633
274408 82155 106505
274397 82052 106375
274186 81919 106219
274051 81858 106123
273839 81841 106005
273615 81802 105979
273389 81723 105837
273147 81606 105733
272903 81453 105448
272461 81415 105195
272008 81158 104728
271327 80780 104341
270595 80585 103918
269835 80171 103499
269126 80111 103133
268382 79872 102766
267714 79658 102495
267156 79586 102256
266578 79440 102120
266123 79290 102001
265751 79271 101949
265438 79316 101866
265137 79216 101855
264977 79261 101807
264679 79155 101688
264505 79068 101652
264276 79043 101507
264041 78941 101353
263772 78866 101236
263436 78824 101021
263093 78569 100726
262646 78416 100468
262262 78290 100113
261721 78120 99876
261246 77912 99497
260677 77677 99162
260159 77482 98776
259552 77183 98389
259026 77047 98055
258393 76792 97663
257856 76643 97396
257352 76493 97069
256796 76362 96803
256355 76191 96543
255805 75999 96253
255310 75881 95941
254759 75756 95647
254357 75654 95343
253805 75432 95079
253348 75196 94820
252863 75061 94585
252424 75030 94331
251938 74864 94041
251539 74799 93860
251103 74667 93599
250646 74413 93361
250250 74229 93053
249756 74166 92769
249322 74126 92562
248883 73954 92272
248470 73733 91997
247992 73439 91672
247598 73349 91362
247115 73336 91015
246623 73171 90791
246243 72917 90442
245759 72748 90201
245347 72591 90054
245027 72624 90252
244896 72992 91105
245042 73897 92781
245772 74876 94725
246985 75782 96506
248917 76815 98128
251424 77618 99492
254329 78355 100879
257509 79223 102057
260603 79798 103081
263326 80254 103843
265539 80743 104439
267316 80878 104787
268562 81084 105019
269414 81162 105028
269905 80991 105012
270163 80960 104899
270156 80912 104789
270165 80798 104635
269927 80689 104409
269710 80740 104317
269477 80557 104173
269226 80367 104064
269002 80404 103943
268798 80322 103855
268575 80201 103682
268156 80164 103402
267819 79938 103125
267240 79633 102640
266583 79392 102154
265839 79078 101675
265156 78745 101234
264396 78616 100807
263714 78426 100521
263064 78157 100193
262440 78119 100046
261995 78057 99913
261541 77845 99865
261205 77914 99774
260854 77963 99766
260635 77842 99740
260339 77776 99692
260206 77900 99644
259934 77692 99515
259738 77741 99407
259523 77801 99257
259244 77428 99153
258973 77571 98935
258608 77395 98727
258298 77293 98403
257839 77073 98154
257482 76934 97832
257029 76643 97443
256489 76474 97116
256023 76314 96734
255519 76101 96428
254997 75846 96069
254543 75843 95722
254002 75444 95345
253462 75264 94996
253001 75106 94630
252388 74866 94267
251920 74676 93894
251411 74455 93573
250954 74202 93237
250401 73956 92893
249923 73846 92588
249426 73729 92271
248966 73616 92036
248551 73454 91707
248112 73259 91476
247676 73072 91214
247223 73009 90949
246822 72876 90666
246361 72637 90368
245922 72471 90077
245417 72262 89728
245031 72036 89462
244555 71974 89145
244134 71811 88851
243696 71596 88552
243297 71538 88330
242880 71411 88131
242536 71338 88286
242338 71620 88961
242423 72437 90541
242960 73583 92705
244077 74746 94868
245876 75634 96595
248138 76531 98127
251018 77535 99561
254057 78281 100813
257207 78975 101935
260102 79601 102808
262545 79876 103417
264459 80168 103870
265878 80445 104129
266954 80572 104305
267639 80392 104345
268082 80450 104265
268240 80369 104166
268364 80274 104044
268276 80214 103904
268184 80071 103812
268034 79998 103737
267964 80069 103743
267856 79910 103602
267730 79958 103579
267573 79897 103398
267301 79746 103131
266909 79549 102774
266379 79297 102372
265773 78973 101902
265044 78689 101480
264422 78565 101126
263734 78315 100787
263139 78221 100534
262563 78140 100305
262093 78015 100216
261664 77961 100100
261326 77899 100152
261079 77981 100083
260808 77940 100122
